Series ID,0,1,2,3,4,5,6,7,8,9,10,11,12,13,14,15,16,17,18,19,20,21,22,23,24,25,26,27,28,29,30,31,32,33,34,35,36,37,38,39,40,41,42,43,44,45,46,47,48,49,50,51,52,53,54,55,56,57,58,59,60,61,62,63,64,65,66,67,68,69,70,71,72,73,74,75,76,77,78,79,80,81,82,83,84,85,86,87,88,89,90,91,92,93,94,95,96,97,98,99,100,101,102,103,104,105,106,107,108,109,110,111,112,113,114,115,116,117,118,119,120,121,122,123,124,125,126,127,128,129,130,131,132,133,134,135,136,137,138,139,140,141,142,143,144,145,146,147,148,149,150,151,152,153,154,155,156,157,158,159,160,161,162,163,164,165,166,167,168,169,170,171,172,173,174,175,176,177,178,179,180,181,182,183,184,185,186,187,188,189,190,191,192,193,194,195,196,197,198,199,200,201,202,203,204,205,206,207,208,209,210,211,212,213,214,215,216,217,218,219,220,221,222,223,224,225,226,227,228,229,230,231,232,233,234,235,236,237,238,239,240,241,242,243,244,245,246,247,248,249,250,251,252,253,254,255,256,257,258,259,260,261,262,263,264,265,266,267,268,269,270,271,272,273,274,275,276,277,278,279,280,281,282,283,284,285,286,287,288,289,290,291,292,293,294,295,296,297,298,299,300,301,302,303,304,305,306,307,308,309,310,311,312,313,314,315,316,317,318,319,320,321,322,323,324,325,326,327,328,329,330,331,332,333,334,335,336,337,338,339,340,341,342,343,344,345,346,347,348,349,350,351,352,353,354,355,356,357,358,359,360,361,362,363,364,365,366,367,368,369,370,371,372,373,374,375,376,377,378,379,380,381,382,383,384,385,386,387,388,389,390,391,392,393,394,395,396,397,398,399,400,401,402,403,404,405,406,407,408,409,410,411,412,413,414,415,416,417,418,419,420,421,422,423,424,425,426,427,428,429,430,431,432,433,434,435,436,437,438,439,440,441,442,443,444,445,446,447,448,449,450,451,452,453,454,455,456,457,458,459,460,461,462,463,464,465,466,467,468,469,470,471,472,473,474,475,476,477,478,479,480,481,482,483,484,485,486,487,488,489,490,491,492,493,494,495,496,497,498,499,500,501,502,503,504,505,506,507,508,509,510,511,512,513,514,515,516,517,518,519,520,521,522,523,524,525,526,527,528,529,530,531,532,533,534,535,536,537,538,539,540,541,542,543,544,545,546,547,548,549,550,551,552,553,554,555,556,557,558,559,560,561,562,563,564,565,566,567,568,569,570,571,572,573,574,575,576,577,578,579,580,581,582,583,584,585,586,587,588,589,590,591,592,593,594,595,596,597,598,599,600,601,602,603,604,605,606,607,608,609,610,611,612,613,614,615,616,617,618,619,620,621,622,623,624,625,626,627,628,629,630,631,632,633,634,635,636,637,638,639,640,641,642,643,644,645,646,647,648,649,650,651,652,653,654,655,656,657,658,659,660,661,662,663,664,665,666,667,668,669,670,671,672,673,674,675,676,677,678,679,680,681,682,683,684,685,686,687,688,689,690,691,692,693,694,695,696,697,698,699,700,701,702,703,704,705,706,707,708,709,710,711,712,713,714,715,716,717,718,719,720,721,722,723,724,725,726,727,728,729,730,731,732,733,734,735,736,737,738,739,740,741,742,743,744,745,746,747,748,749,750,751,752,753,754,755,756,757,758,759,760,761,762,763,764,765,766,767,768,769,770,771,772,773,774,775,776,777,778,779,780,781,782,783,784,785,786,787,788,789,790,791,792,793,794,795,796,797,798,799,800,801,802,803,804,805,806,807,808,809,810,811,812,813,814,815,816,817,818,819,820,821,822,823,824,825,826,827,828,829,830,831,832,833,834,835,836,837,838,839,840,841,842,843,844,845,846,847,848,849,850,851,852,853,854,855,856,857,858,859,860,861,862,863,864,865,866,867,868,869,870,871,872,873,874,875,876,877,878,879,880,881,882,883,884,885,886,887,888,889,890,891,892,893,894,895,896,897,898,899,900,901,902,903,904,905,906,907,908,909,910,911,912,913,914,915,916,917,918,919,920,921,922,923,924,925,926,927,928,929,930,931,932,933,934,935,936,937,938,939,940,941,942,943,944,945,946,947,948,949,950,951,952,953,954,955,956,957,958,959,960,961,962,963,964,965,966,967,968,969,970,971,972,973,974,975,976,977,978,979,980,981,982,983,984,985,986,987,988,989,990,991,992,993,994,995,996,997,998,999
0_0,-0.006394,-0.003957,-0.001813,0,0.002456,0.004581,0.007037,0.009162,0.01039,0.01191,0.012515,0.012827,0.01191,0.01039,0.008246,0.005809,0.00306,0,-0.002125,-0.003353,-0.002125,-0.000292,0.002144,0.004581,0.006413,0.008246,0.008869,0.007953,0.004893,0.000916,-0.002437,-0.005789,-0.007622,-0.008226,-0.007622,-0.004561,-0.000292,0.004893,0.010078,0.014347,0.017407,0.020156,0.020448,0.019532,0.016491,0.014055,0.010994,0.008557,0.004893,0.00154,0,-0.001209,-0.002729,-0.004561,-0.007622,-0.011579,-0.01616,-0.020429,-0.02501,-0.029279,-0.032651,-0.034483,-0.035088,-0.034172,-0.032339,-0.029279,-0.025926,-0.022261,-0.019513,-0.016784,-0.013723,-0.01037,-0.007018,-0.003957,-0.00152,0.001228,0.002456,0.003372,0.001832,-0.002125,-0.007018,-0.012495,-0.018596,-0.023801,-0.027154,-0.028986,-0.028363,-0.025926,-0.021657,-0.016472,-0.010058,-0.003353,0.002456,0.007641,0.012222,0.015575,0.017096,0.016491,0.014055,0.010682,0.007037,0.002456,-0.002125,-0.007018,-0.01037,-0.013119,-0.014951,-0.015867,-0.015867,-0.015556,-0.014035,-0.012203,-0.009454,-0.005789,-0.002729,0.000916,0.004893,0.008246,0.010682,0.012515,0.015263,0.01924,0.024113,0.030838,0.038148,0.04731,0.058304,0.069903,0.080877,0.089435,0.09462,0.095536,0.092164,0.08423,0.072027,0.05616,0.039376,0.022281,0.006725,-0.006101,-0.01616,-0.023801,-0.02807,-0.031111,-0.033255,-0.035088,-0.036608,-0.038441,-0.040273,-0.041793,-0.041793,-0.041189,-0.038129,-0.035088,-0.031735,-0.027466,-0.024094,-0.020429,-0.017992,-0.015867,-0.015244,-0.015867,-0.0177,-0.020741,-0.024405,-0.029279,-0.033567,-0.037524,-0.040585,-0.042417,-0.041793,-0.040273,-0.037212,-0.033567,-0.028986,-0.024717,-0.020136,-0.013723,-0.004873,0.01039,0.032359,0.061969,0.100409,0.149844,0.206608,0.267641,0.322885,0.361949,0.374152,0.355848,0.307622,0.233158,0.140994,0.039981,-0.058285,-0.140058,-0.197134,-0.224912,-0.224288,-0.201404,-0.163879,-0.121754,-0.081774,-0.049123,-0.025926,-0.011891,-0.005185,-0.004561,-0.00731,-0.012203,-0.01616,-0.019513,-0.021345,-0.021969,-0.020136,-0.018304,-0.015867,-0.013119,-0.01037,-0.007934,-0.007018,-0.005185,-0.004269,-0.003353,-0.002729,-0.001209,0.000312,0.002144,0.003372,0.004581,0.004893,0.005497,0.005497,0.006413,0.006725,0.007329,0.007953,0.008869,0.008869,0.009162,0.008869,0.008246,0.007037,0.006121,0.005809,0.005497,0.004581,0.003665,0.002749,0.00306,0.00306,0.003665,0.003372,0.002749,0.000916,-0.000604,-0.002125,-0.004873,-0.007622,-0.010975,-0.014951,-0.018304,-0.022261,-0.024717,-0.02655,-0.026238,-0.024405,-0.021053,-0.015244,-0.007622,0.00154,0.011306,0.021072,0.029006,0.036023,0.039981,0.040897,0.038772,0.033879,0.026569,0.016179,0.005497,-0.005478,-0.016784,-0.027466,-0.036316,-0.043626,-0.048519,-0.050351,-0.050955,-0.049123,-0.04577,-0.040273,-0.035692,-0.030819,-0.027466,-0.025926,-0.024717,-0.026238,-0.028674,-0.031111,-0.033567,-0.0354,-0.035692,-0.0354,-0.03386,-0.031735,-0.029279,-0.026842,-0.024717,-0.022885,-0.020429,-0.017388,-0.014951,-0.013411,-0.013119,-0.013723,-0.015556,-0.018304,-0.021969,-0.026842,-0.030819,-0.034172,-0.036608,-0.03692,-0.036004,-0.03386,-0.031423,-0.028363,-0.026842,-0.025322,-0.024717,-0.023801,-0.023801,-0.023489,-0.022885,-0.021053,-0.01922,-0.01616,-0.013119,-0.010058,-0.006394,-0.002125,0.00154,0.004893,0.007641,0.010994,0.014971,0.019844,0.025653,0.032359,0.040292,0.04731,0.055244,0.062573,0.067758,0.071111,0.070819,0.066238,0.05768,0.044873,0.02961,0.012827,-0.004561,-0.021657,-0.0354,-0.046686,-0.053392,-0.05614,-0.056452,-0.054016,-0.050039,-0.046374,-0.043938,-0.041793,-0.040877,-0.040273,-0.039961,-0.040273,-0.041793,-0.04425,-0.046686,-0.049727,-0.052476,-0.055536,-0.058577,-0.060721,-0.061326,-0.061033,-0.058889,-0.05614,-0.053392,-0.050039,-0.046979,-0.044542,-0.042105,-0.040877,-0.039961,-0.039669,-0.038752,-0.038129,-0.036316,-0.030507,-0.016784,0.004288,0.035107,0.075088,0.126355,0.187076,0.253314,0.314035,0.357973,0.374464,0.359513,0.312515,0.236823,0.140994,0.035419,-0.066823,-0.153489,-0.213918,-0.243216,-0.2423,-0.216979,-0.176998,-0.131209,-0.089103,-0.055828,-0.033567,-0.021345,-0.01616,-0.016784,-0.020741,-0.02501,-0.02807,-0.028986,-0.029279,-0.027154,-0.023801,-0.021345,-0.018596,-0.015867,-0.014327,-0.012203,-0.010663,-0.009747,-0.00885,-0.008226,-0.007622,-0.007018,-0.006101,-0.004873,-0.002729,-0.000897,0.000624,0.002144,0.00306,0.003372,0.00306,0.002749,0.002749,0.002749,0.00306,0.003665,0.004893,0.004893,0.005497,0.005497,0.005497,0.005497,0.004893,0.004893,0.005205,0.006413,0.008246,0.010682,0.012222,0.012827,0.012515,0.012222,0.011598,0.010994,0.010994,0.009766,0.008869,0.009474,0.01039,0.010994,0.01191,0.01191,0.012222,0.013138,0.015263,0.017719,0.021365,0.026257,0.032047,0.038148,0.044561,0.049142,0.051287,0.050663,0.04731,0.039981,0.030526,0.018616,0.007037,-0.004561,-0.013411,-0.01922,-0.022573,-0.023489,-0.022573,-0.020741,-0.018908,-0.016472,-0.01616,-0.016472,-0.018596,-0.020741,-0.022885,-0.02501,-0.02655,-0.027154,-0.02807,-0.027758,-0.027154,-0.025926,-0.024094,-0.022261,-0.020136,-0.0177,-0.014951,-0.012807,-0.010975,-0.00885,-0.007018,-0.006706,-0.007934,-0.009747,-0.012203,-0.014951,-0.016784,-0.018908,-0.019513,-0.01922,-0.017388,-0.015556,-0.012807,-0.009454,-0.005789,-0.002729,-0.000897,-0.001209,-0.001813,-0.002729,-0.005185,-0.007018,-0.00885,-0.00885,-0.006394,0.000312,0.009766,0.023509,0.039064,0.055556,0.071735,0.086062,0.097057,0.103762,0.104678,0.099805,0.088207,0.072943,0.053119,0.031754,0.01039,-0.00885,-0.025634,-0.038752,-0.047602,-0.052788,-0.05462,-0.054308,-0.052476,-0.050039,-0.04729,-0.044854,-0.04271,-0.041189,-0.039669,-0.038441,-0.037836,-0.038752,-0.040273,-0.042105,-0.043626,-0.045166,-0.046062,-0.046686,-0.046062,-0.045166,-0.043626,-0.040585,-0.037836,-0.034483,-0.031423,-0.027758,-0.025926,-0.023489,-0.023177,-0.022573,-0.022885,-0.020429,-0.012807,0.002144,0.025653,0.058908,0.102846,0.15809,0.220955,0.286569,0.343021,0.379961,0.387895,0.363782,0.310058,0.231033,0.135205,0.032671,-0.063158,-0.140975,-0.193782,-0.217583,-0.21423,-0.191345,-0.155926,-0.117173,-0.082086,-0.054308,-0.035088,-0.023489,-0.017992,-0.016472,-0.0177,-0.018596,-0.020136,-0.021969,-0.023177,-0.024405,-0.024717,-0.024717,-0.024094,-0.023177,-0.021657,-0.01922,-0.015867,-0.012495,-0.009142,-0.006394,-0.004561,-0.002125,-0.000604,-0.000292,0.000312,-0.000604,-0.002437,-0.003957,-0.005185,-0.004873,-0.004561,-0.004269,-0.002437,0.000916,0.003977,0.006725,0.008557,0.008557,0.007641,0.005497,0.003372,0.000624,-0.001209,-0.001813,-0.001813,-0.000897,0.000916,0.003665,0.005809,0.007037,0.007953,0.008869,0.009474,0.009162,0.009162,0.008869,0.008557,0.007953,0.007037,0.006725,0.006725,0.006413,0.007329,0.010078,0.014971,0.021365,0.028694,0.036023,0.043353,0.047914,0.049747,0.049142,0.045185,0.039688,0.032963,0.024113,0.014347,0.005497,-0.002125,-0.00885,-0.014035,-0.018596,-0.021969,-0.024094,-0.024717,-0.022885,-0.020741,-0.016784,-0.014035,-0.010975,-0.01037,-0.010058,-0.010975,-0.012495,-0.014951,-0.017388,-0.01922,-0.019513,-0.017388,-0.014951,-0.012203,-0.009142,-0.00731,-0.006101,-0.004561,-0.003645,-0.003645,-0.003957,-0.004873,-0.006101,-0.006706,-0.007934,-0.009747,-0.011579,-0.013723,-0.014951,-0.01616,-0.016784,-0.01616,-0.014639,-0.012495,-0.009454,-0.006394,-0.003645,-0.000292,0.003977,0.009162,0.016803,0.025945,0.036316,0.049142,0.063177,0.076296,0.087602,0.095828,0.100721,0.101014,0.09614,0.08577,0.071423,0.053411,0.034503,0.015263,-0.003041,-0.01922,-0.031111,-0.038752,-0.043626,-0.044854,-0.04271,-0.039045,-0.034483,-0.030507,-0.027154,-0.025926,-0.025926,-0.027154,-0.029279,-0.032027,-0.034172,-0.03692,-0.039669,-0.041501,-0.042417,-0.04271,-0.042105,-0.040273,-0.038752,-0.036004,-0.032943,-0.030195,-0.025926,-0.023177,-0.020429,-0.018304,-0.017388,-0.017388,-0.017388,-0.0177,-0.018304,-0.018304,-0.016784,-0.012807,-0.004269,0.011306,0.034795,0.066238,0.105302,0.151988,0.206004,0.257271,0.302437,0.329298,0.333255,0.309766,0.260019,0.188616,0.103762,0.014659,-0.068051,-0.136101,-0.181871,-0.200487,-0.19499,-0.171501,-0.135497,-0.097641,-0.062554,-0.033255,-0.013119,-0.000897,0.004288,0.004288,0.00154,-0.002125,-0.006101,-0.009142,-0.012203,-0.014035,-0.015244,-0.015556,-0.014639,-0.013119,-0.010663,-0.007622,-0.004269,-0.000604,0.002456,0.005205,0.006725,0.007037,0.006725,0.005809,0.004581,0.003665,0.003372,0.003372,0.004893,0.006725,0.007641,0.008869,0.01039,0.010682,0.012222,0.011598,0.011598,0.011598,0.01191,0.012515,0.013431,0.014971,0.016803,0.017407,0.018324,0.018324,0.018616,0.018012,0.016803,0.015263,0.013431,0.012827,0.012515,0.013138,0.014971,0.016179,0.016491,0.017096,0.017096,0.016491,0.015887,0.015263,0.015887,0.016803,0.01924,0.023197,0.028382,0.032963,0.037856,0.04152,0.043957,0.044873,0.043957,0.04152,0.03846,0.033879,0.029298,0.023509,0.019532,0.014347,0.010682,0.007037,0.004288,0.001832,-0.00152,-0.004873,-0.007934,-0.009747,-0.011579,-0.012807,-0.013723,-0.013411,-0.012495,-0.010975,-0.008538,-0.005185,-0.002729,0.000624,0.002749,0.004581,0.005497,0.005809,0.005205,0.003977,0.002456,0.001228,0.000916,0.00154,0.002144,0.003977,0.006413,0.007953,0.008246,0.007037,0.004893,0.001832,-0.00152,-0.005478,-0.008226,-0.01037,-0.010058,-0.00885,-0.006394,-0.002437,0.002144,0.006121,0.010078,0.012827,0.014347,0.014347,0.013431,0.012515,0.009766,0.007641,0.005205,0.004288,0.004581,0.006121,0.009162,0.012827,0.015575,0.01924,0.022281,0.024113,0.027173,0.031131,0.035419,0.041209,0.04883,0.057388,0.065926
1_0,-0.052186,-0.056458,-0.054932,-0.05066,-0.045167,-0.040284,-0.035706,-0.032959,-0.031128,-0.029908,-0.028077,-0.026246,-0.024109,-0.019532,-0.015259,-0.010681,-0.006409,-0.004273,-0.003662,-0.005188,-0.008545,-0.012818,-0.018616,-0.024414,-0.028992,-0.032044,-0.033265,-0.032654,-0.029603,-0.02533,-0.019837,-0.014038,-0.007935,-0.003357,0.000305,0.003357,0.004578,0.004578,0.003662,0.001831,-0.001221,-0.005188,-0.009155,-0.012818,-0.015259,-0.015564,-0.014343,-0.012207,-0.009766,-0.00824,-0.006714,-0.004578,-0.003357,-0.003052,-0.002136,-0.000916,0,0.003052,0.006714,0.010986,0.014649,0.0177,0.019226,0.0177,0.014954,0.010376,0.004273,-0.001831,-0.007324,-0.012207,-0.016175,-0.018616,-0.021057,-0.022583,-0.021973,-0.021057,-0.019837,-0.018006,-0.015564,-0.012512,-0.007324,-0.002747,0.00061,0.003357,0.004883,0.004273,0.001831,-0.001221,-0.005798,-0.011597,-0.015869,-0.019837,-0.022278,-0.022889,-0.021973,-0.018921,-0.014954,-0.010071,-0.004273,0.00061,0.004883,0.006104,0.004883,0.002441,-0.000916,-0.003662,-0.007324,-0.010681,-0.012207,-0.012512,-0.011292,-0.009766,-0.00824,-0.007324,-0.00824,-0.00885,-0.010681,-0.011902,-0.013123,-0.013428,-0.013428,-0.012512,-0.011597,-0.010071,-0.008545,-0.00763,-0.006104,-0.003967,-0.002441,-0.000305,0.001221,0.002747,0.005188,0.007019,0.006714,0.004578,0.001831,-0.001526,-0.004883,-0.00885,-0.011597,-0.012818,-0.012512,-0.010376,-0.005798,0,0.006104,0.011597,0.015869,0.019532,0.022583,0.024414,0.026246,0.026551,0.027771,0.028077,0.028992,0.028382,0.027161,0.024414,0.022278,0.018616,0.014649,0.010681,0.006104,0.001526,-0.002441,-0.007019,-0.010986,-0.013733,-0.015259,-0.015564,-0.014343,-0.012207,-0.00885,-0.005493,-0.002747,-0.000305,0.000305,0,-0.001831,-0.004578,-0.007935,-0.010986,-0.014038,-0.01648,-0.017395,-0.016785,-0.013428,-0.008545,0.000305,0.012207,0.026856,0.04181,0.057069,0.072938,0.090639,0.108034,0.122988,0.132143,0.134585,0.129702,0.118105,0.099489,0.073854,0.04303,0.010986,-0.01709,-0.039673,-0.054322,-0.060426,-0.05951,-0.053407,-0.043946,-0.032959,-0.022889,-0.015564,-0.011292,-0.010376,-0.010376,-0.012512,-0.015564,-0.018006,-0.019226,-0.018921,-0.018311,-0.018616,-0.018311,-0.018311,-0.01648,-0.014954,-0.014343,-0.014343,-0.015259,-0.015564,-0.015259,-0.015564,-0.015259,-0.016175,-0.016785,-0.016785,-0.01648,-0.015869,-0.016175,-0.015259,-0.014343,-0.013123,-0.012207,-0.010986,-0.009766,-0.009155,-0.00824,-0.007019,-0.005493,-0.004883,-0.003357,-0.001526,0,0.002441,0.004273,0.005493,0.005188,0.005188,0.005493,0.004578,0.004273,0.002747,0.002136,0.001831,0.001831,0.002747,0.003967,0.005798,0.007019,0.007935,0.007324,0.006409,0.004578,0.002441,0.00061,-0.001221,-0.002441,-0.002747,-0.001831,0,0.002136,0.003967,0.004883,0.004883,0.003662,0.000916,-0.001221,-0.003967,-0.006714,-0.009155,-0.010681,-0.011292,-0.011597,-0.011597,-0.010986,-0.011292,-0.010681,-0.010071,-0.008545,-0.007935,-0.006409,-0.005188,-0.003357,-0.000916,0.000305,0.001221,0.001526,0.001221,0,-0.00061,-0.001526,-0.002441,-0.002441,-0.002136,-0.001526,-0.001831,-0.001526,0.00061,0.002441,0.005188,0.006409,0.007324,0.007935,0.00763,0.006104,0.003967,0.00061,-0.003052,-0.006409,-0.008545,-0.009766,-0.00885,-0.006104,-0.000916,0.003357,0.00824,0.013123,0.01709,0.019532,0.020142,0.019532,0.017395,0.014343,0.010071,0.006104,0.004273,0.004273,0.006104,0.009461,0.012512,0.016785,0.019837,0.021973,0.021973,0.021363,0.019226,0.015869,0.012207,0.00885,0.006104,0.004578,0.002136,-0.000305,-0.002441,-0.003662,-0.003967,-0.003967,-0.003662,-0.001831,-0.00061,0.000305,0.000916,0.000916,0,-0.002441,-0.005493,-0.007935,-0.009155,-0.010986,-0.011597,-0.011902,-0.011902,-0.011597,-0.010071,-0.007935,-0.004273,0.002747,0.013733,0.027466,0.042725,0.059815,0.080873,0.101015,0.119631,0.132143,0.136721,0.133669,0.122072,0.102846,0.077211,0.048829,0.018006,-0.009766,-0.03357,-0.049744,-0.057069,-0.058289,-0.053712,-0.045472,-0.036011,-0.028077,-0.021668,-0.017395,-0.014343,-0.012818,-0.013123,-0.013733,-0.014649,-0.015564,-0.01709,-0.018311,-0.020142,-0.023499,-0.026246,-0.028687,-0.029603,-0.028992,-0.027161,-0.024109,-0.019837,-0.015869,-0.011597,-0.008545,-0.004883,-0.003052,-0.000916,-0.000305,-0.000305,-0.000305,-0.001221,-0.001831,-0.003052,-0.004578,-0.006409,-0.007935,-0.009766,-0.010986,-0.012512,-0.014038,-0.015564,-0.015564,-0.014649,-0.013428,-0.010986,-0.008545,-0.004578,0,0.003967,0.005798,0.007019,0.007935,0.008545,0.008545,0.00885,0.008545,0.009766,0.011597,0.013428,0.014038,0.013733,0.011902,0.008545,0.003967,-0.000916,-0.006409,-0.010986,-0.013733,-0.01648,-0.018616,-0.019226,-0.020447,-0.020142,-0.020142,-0.019837,-0.019837,-0.019837,-0.018921,-0.01709,-0.014954,-0.011902,-0.009155,-0.007935,-0.00824,-0.00885,-0.010071,-0.011597,-0.013428,-0.015259,-0.016175,-0.016175,-0.015259,-0.012818,-0.010986,-0.009155,-0.007935,-0.007019,-0.007019,-0.007935,-0.009766,-0.012512,-0.016175,-0.018921,-0.021057,-0.021668,-0.020447,-0.018006,-0.014649,-0.010681,-0.005798,-0.001526,0.001831,0.004273,0.004883,0.003662,0.002136,0,-0.003967,-0.007019,-0.009461,-0.011597,-0.013123,-0.012818,-0.010071,-0.005798,-0.002441,0.001221,0.004578,0.00824,0.010071,0.011292,0.011292,0.010986,0.009766,0.010681,0.012207,0.014954,0.017395,0.020142,0.022583,0.023804,0.023499,0.021668,0.018006,0.014343,0.009461,0.004273,-0.000305,-0.004578,-0.00824,-0.011597,-0.014343,-0.015869,-0.015869,-0.015869,-0.015259,-0.014954,-0.014038,-0.012207,-0.010071,-0.007935,-0.006104,-0.003662,-0.002136,-0.001221,-0.001221,-0.003662,-0.007019,-0.011597,-0.014649,-0.01648,-0.015564,-0.010986,-0.002441,0.009766,0.023499,0.042725,0.062257,0.083314,0.104067,0.122988,0.137026,0.144045,0.142214,0.131533,0.112917,0.086976,0.055238,0.021668,-0.00885,-0.035096,-0.053101,-0.061646,-0.062867,-0.058289,-0.05127,-0.042725,-0.034791,-0.027771,-0.023499,-0.020752,-0.019226,-0.018921,-0.018311,-0.019226,-0.019532,-0.019226,-0.018311,-0.018311,-0.018311,-0.016785,-0.014954,-0.013123,-0.012818,-0.011902,-0.011902,-0.012818,-0.013733,-0.015259,-0.01709,-0.018311,-0.018311,-0.018311,-0.0177,-0.015564,-0.013428,-0.010376,-0.008545,-0.006104,-0.004883,-0.003662,-0.003357,-0.003357,-0.005798,-0.007935,-0.009155,-0.010071,-0.011292,-0.011902,-0.011292,-0.009461,-0.00763,-0.004883,-0.003662,-0.002136,-0.001221,-0.000305,0.000916,0.001831,0.003052,0.004883,0.006104,0.00824,0.009461,0.010681,0.010071,0.009155,0.00763,0.006104,0.004578,0.001831,-0.000916,-0.004578,-0.008545,-0.011902,-0.015564,-0.019532,-0.021668,-0.021973,-0.020447,-0.01709,-0.012818,-0.007019,-0.002441,0,0.003357,0.004273,0.004273,0.001831,0,-0.001831,-0.004578,-0.006714,-0.009461,-0.011597,-0.012207,-0.012512,-0.013123,-0.012207,-0.011292,-0.00885,-0.006714,-0.003662,-0.002136,-0.000916,-0.000916,-0.000916,-0.000916,-0.00061,-0.000916,-0.001526,-0.001526,-0.001526,-0.002136,-0.002441,-0.003662,-0.004578,-0.004883,-0.006104,-0.005798,-0.005493,-0.004273,-0.002441,-0.000305,0.001221,0.002441,0.003052,0.002747,0.002747,0.003052,0.003052,0.003357,0.003967,0.005188,0.006714,0.00885,0.010681,0.011902,0.013123,0.014954,0.01648,0.0177,0.018311,0.018921,0.020447,0.021668,0.021668,0.021668,0.020447,0.018311,0.016785,0.014954,0.011902,0.008545,0.007019,0.005798,0.005188,0.004578,0.003357,0.003052,0.002747,0.001831,0.000305,-0.002441,-0.004273,-0.005493,-0.006714,-0.00763,-0.00885,-0.010376,-0.010681,-0.010681,-0.009766,-0.00885,-0.00763,-0.00763,-0.007935,-0.00824,-0.00885,-0.008545,-0.006714,-0.003967,0.001831,0.010071,0.023499,0.039063,0.059815,0.082704,0.108644,0.129091,0.144656,0.151675,0.151369,0.141299,0.120546,0.09308,0.060731,0.027161,-0.004883,-0.030213,-0.047608,-0.056153,-0.057984,-0.054322,-0.046998,-0.039673,-0.030823,-0.023804,-0.018921,-0.016175,-0.015259,-0.015564,-0.01648,-0.016785,-0.01709,-0.018006,-0.018921,-0.019226,-0.019532,-0.019532,-0.018616,-0.01709,-0.015869,-0.014954,-0.014038,-0.013428,-0.012207,-0.011597,-0.010681,-0.010986,-0.010376,-0.009155,-0.007935,-0.00763,-0.007019,-0.006104,-0.005493,-0.005493,-0.006714,-0.007324,-0.007935,-0.00763,-0.00824,-0.00824,-0.008545,-0.009766,-0.011597,-0.012207,-0.012818,-0.013123,-0.013123,-0.011597,-0.010071,-0.007324,-0.003967,0,0.004883,0.008545,0.012512,0.015564,0.018311,0.020447,0.021363,0.021973,0.021973,0.020447,0.018311,0.014954,0.010681,0.006104,0,-0.006409,-0.013733,-0.018311,-0.022583,-0.02533,-0.026246,-0.025635,-0.023194,-0.019226,-0.015564,-0.012207,-0.009155,-0.006714,-0.005493,-0.005493,-0.007324,-0.008545,-0.010376,-0.011902,-0.012512,-0.013123,-0.013123,-0.012207,-0.010071,-0.00885,-0.00824,-0.007935,-0.006714,-0.006714,-0.00763,-0.009155,-0.010681,-0.012818,-0.014343,-0.015869,-0.01709,-0.016785,-0.015564,-0.013428,-0.011292,-0.007324,-0.003052,0.000305,0.003967,0.006104,0.007019,0.006104,0.004883,0.001831,-0.00061,-0.004578,-0.007935,-0.010681,-0.010986,-0.011902,-0.010376,-0.007935,-0.003967,-0.001221,0.001221,0.002136,0.001221,-0.000916,-0.004578,-0.009155,-0.013428,-0.017395,-0.020142,-0.021973,-0.021668,-0.018921,-0.015259,-0.011292,-0.007019,-0.002441,0.002441,0.007019,0.00885,0.00885,0.00824,0.006714,0.005493,0.004883,0.004578,0.004883,0.007324,0.011902,0.01648,0.021973,0.026551,0.029908,0.030213,0.028382,0.02472,0.019837,0.013733,0.007935,0.001526,-0.003052,-0.006714,-0.00885,-0.009155,-0.009766,-0.010376,-0.010071,-0.009766,-0.010681,-0.012207,-0.013428,-0.014649,-0.016175,-0.017395,-0.019226,-0.021057,-0.021668,-0.021057,-0.020447,-0.019837,-0.019226,-0.018006,-0.016175,-0.014343,-0.012818,-0.011902,-0.011902
2_0,-0.064698,-0.054322,-0.042725,-0.030518,-0.01648,-0.002747,0.00824,0.018006,0.02472,0.028687,0.030213,0.028382,0.024109,0.018006,0.011597,0.005493,0,-0.004273,-0.006714,-0.00885,-0.010986,-0.013123,-0.015259,-0.018616,-0.021973,-0.02533,-0.029297,-0.033875,-0.038148,-0.041505,-0.045777,-0.050355,-0.056153,-0.062867,-0.071107,-0.080568,-0.090944,-0.10193,-0.112001,-0.121157,-0.130007,-0.138247,-0.145571,-0.154116,-0.162966,-0.173037,-0.183719,-0.194705,-0.204166,-0.213016,-0.220951,-0.227054,-0.229801,-0.231327,-0.232547,-0.232853,-0.231937,-0.231022,-0.229496,-0.226444,-0.222782,-0.217899,-0.2121,-0.205081,-0.198367,-0.192874,-0.188296,-0.184634,-0.182498,-0.181582,-0.180056,-0.179141,-0.178531,-0.177005,-0.173342,-0.169375,-0.163577,-0.157473,-0.150759,-0.143435,-0.1355,-0.127871,-0.119936,-0.112306,-0.103456,-0.096742,-0.090333,-0.084535,-0.079347,-0.0766,-0.073548,-0.066529,-0.050965,-0.023804,0.014343,0.066224,0.130007,0.205081,0.286259,0.36408,0.426337,0.461433,0.457465,0.41474,0.337224,0.235599,0.121462,0.006409,-0.096437,-0.176089,-0.224308,-0.238956,-0.225834,-0.19379,-0.153811,-0.114443,-0.081788,-0.059205,-0.045777,-0.041505,-0.04303,-0.047303,-0.051575,-0.054932,-0.055848,-0.054627,-0.05127,-0.046693,-0.04181,-0.036927,-0.032959,-0.030823,-0.029603,-0.029908,-0.030823,-0.03357,-0.036927,-0.040284,-0.04303,-0.045777,-0.046693,-0.046998,-0.046998,-0.045472,-0.043946,-0.040589,-0.036622,-0.032044,-0.027771,-0.022583,-0.018006,-0.013733,-0.010986,-0.008545,-0.007324,-0.006714,-0.006409,-0.006714,-0.007324,-0.007324,-0.007935,-0.00824,-0.009155,-0.010071,-0.010681,-0.010986,-0.010986,-0.010986,-0.00885,-0.005798,-0.001526,0.002747,0.007019,0.010986,0.013123,0.012207,0.009155,0.003662,-0.004883,-0.014954,-0.027466,-0.040284,-0.052491,-0.063783,-0.074159,-0.083009,-0.090028,-0.095521,-0.10071,-0.103761,-0.106813,-0.109255,-0.111086,-0.113527,-0.115053,-0.115969,-0.116579,-0.116884,-0.117494,-0.117494,-0.116884,-0.116274,-0.115053,-0.113222,-0.111391,-0.107118,-0.102541,-0.098268,-0.092775,-0.089113,-0.087282,-0.085451,-0.08423,-0.083619,-0.083925,-0.083925,-0.083009,-0.082399,-0.079957,-0.077516,-0.075685,-0.072938,-0.070192,-0.06775,-0.064698,-0.063478,-0.062257,-0.061036,-0.060426,-0.05951,-0.05951,-0.05951,-0.059815,-0.060731,-0.061646,-0.062257,-0.063783,-0.064698,-0.065309,-0.065614,-0.065919,-0.065309,-0.065003,-0.065309,-0.064698,-0.064393,-0.064698,-0.065003,-0.065309,-0.065614,-0.065614,-0.065614,-0.065614,-0.064393,-0.063478,-0.063172,-0.062867,-0.062257,-0.061952,-0.061646,-0.061952,-0.061036,-0.061036,-0.060426,-0.05951,-0.058289,-0.057069,-0.056458,-0.057069,-0.057679,-0.059205,-0.061036,-0.064393,-0.06836,-0.072633,-0.07599,-0.079347,-0.082399,-0.084535,-0.086061,-0.086671,-0.086366,-0.086061,-0.08484,-0.080873,-0.07538,-0.068971,-0.061646,-0.053101,-0.043946,-0.035096,-0.027161,-0.021057,-0.015869,-0.012207,-0.010071,-0.00824,-0.007019,-0.005493,-0.003662,-0.001526,0,0.002136,0.002747,0.003052,0.002136,0.001831,0.001526,0.001831,0.004578,0.010986,0.019226,0.028992,0.038148,0.047913,0.054932,0.057984,0.057984,0.054932,0.049744,0.04242,0.035706,0.029908,0.02594,0.023194,0.021973,0.020752,0.019837,0.018311,0.01648,0.013428,0.009461,0.006104,0.003662,0.001221,-0.00061,-0.002747,-0.004883,-0.007324,-0.010376,-0.014649,-0.020142,-0.027161,-0.03418,-0.040894,-0.046693,-0.051575,-0.054932,-0.058289,-0.061646,-0.063478,-0.057679,-0.043946,-0.018921,0.017395,0.065309,0.124819,0.192874,0.265812,0.331731,0.381781,0.402228,0.385748,0.332647,0.248417,0.14435,0.031128,-0.079957,-0.176089,-0.247501,-0.288396,-0.297856,-0.280766,-0.248112,-0.208133,-0.170291,-0.139467,-0.119326,-0.108644,-0.105592,-0.107424,-0.111086,-0.115969,-0.119631,-0.121462,-0.121157,-0.118715,-0.115053,-0.111086,-0.105898,-0.100404,-0.095216,-0.090639,-0.086976,-0.084535,-0.084535,-0.08423,-0.08484,-0.085451,-0.086061,-0.086366,-0.086061,-0.085145,-0.083314,-0.081483,-0.078737,-0.07599,-0.073548,-0.071412,-0.068666,-0.066529,-0.062867,-0.05951,-0.054932,-0.050965,-0.046082,-0.040894,-0.035096,-0.028992,-0.023194,-0.0177,-0.012818,-0.008545,-0.004273,-0.001526,0.000916,0.003052,0.005188,0.007324,0.009155,0.012207,0.014954,0.017395,0.019837,0.020447,0.019837,0.018006,0.014038,0.00824,0.001831,-0.005798,-0.014649,-0.023804,-0.032654,-0.040284,-0.046387,-0.05066,-0.054017,-0.055238,-0.055848,-0.054322,-0.052796,-0.051881,-0.050965,-0.051881,-0.053712,-0.056153,-0.060121,-0.063172,-0.066529,-0.069581,-0.072023,-0.073854,-0.07538,-0.075685,-0.075685,-0.074769,-0.074159,-0.073243,-0.071717,-0.070192,-0.06836,-0.066529,-0.065003,-0.063783,-0.062867,-0.061036,-0.060426,-0.05951,-0.058289,-0.056764,-0.055848,-0.054322,-0.053712,-0.054017,-0.054017,-0.054322,-0.054627,-0.055543,-0.056764,-0.057374,-0.057374,-0.056458,-0.054932,-0.053101,-0.051575,-0.05005,-0.047913,-0.046387,-0.045167,-0.044556,-0.043336,-0.04303,-0.04303,-0.042725,-0.04303,-0.043641,-0.044251,-0.044862,-0.045777,-0.046082,-0.046998,-0.047608,-0.047608,-0.047608,-0.046998,-0.047608,-0.048219,-0.049134,-0.05066,-0.052186,-0.053101,-0.054932,-0.055848,-0.056153,-0.054932,-0.053407,-0.05127,-0.049439,-0.047608,-0.046082,-0.044556,-0.044251,-0.044556,-0.044862,-0.045167,-0.045777,-0.045777,-0.044862,-0.044251,-0.042725,-0.041199,-0.039063,-0.037537,-0.037232,-0.037232,-0.038148,-0.039368,-0.042725,-0.046387,-0.05066,-0.055543,-0.059815,-0.062867,-0.065614,-0.066529,-0.066835,-0.066224,-0.065003,-0.064088,-0.064088,-0.065309,-0.067445,-0.069581,-0.072633,-0.077516,-0.083009,-0.089113,-0.095216,-0.10132,-0.106508,-0.111086,-0.115053,-0.118105,-0.118715,-0.117494,-0.114137,-0.109865,-0.103761,-0.097658,-0.092164,-0.086061,-0.081178,-0.0766,-0.073243,-0.070497,-0.06775,-0.065919,-0.064088,-0.062257,-0.061036,-0.058289,-0.055238,-0.051575,-0.046693,-0.042115,-0.037537,-0.032044,-0.02594,-0.019226,-0.012818,-0.00763,-0.003052,0.000305,0.002136,0.002136,-0.000305,-0.005798,-0.013123,-0.021363,-0.030518,-0.040284,-0.049134,-0.055848,-0.061646,-0.065919,-0.06836,-0.069886,-0.071107,-0.071412,-0.072328,-0.072938,-0.074159,-0.07599,-0.078431,-0.081483,-0.084535,-0.088502,-0.091249,-0.092775,-0.092775,-0.092164,-0.090639,-0.089723,-0.086366,-0.075685,-0.056153,-0.026246,0.014343,0.065919,0.12726,0.195621,0.265202,0.328069,0.37232,0.386358,0.36347,0.30518,0.219425,0.116579,0.00763,-0.096132,-0.184634,-0.247501,-0.27924,-0.27985,-0.256352,-0.216373,-0.171817,-0.131228,-0.099184,-0.077821,-0.067445,-0.065309,-0.070192,-0.077516,-0.086061,-0.09369,-0.098878,-0.102541,-0.103456,-0.101625,-0.098573,-0.094301,-0.090333,-0.086976,-0.083619,-0.080568,-0.078126,-0.0766,-0.075074,-0.073854,-0.072633,-0.071107,-0.070192,-0.06836,-0.065919,-0.064088,-0.062562,-0.061341,-0.060121,-0.059815,-0.059205,-0.058595,-0.057984,-0.056764,-0.054932,-0.053407,-0.05127,-0.049744,-0.047608,-0.046082,-0.045167,-0.044556,-0.044862,-0.044556,-0.044251,-0.044251,-0.043336,-0.04242,-0.040284,-0.038453,-0.035401,-0.031739,-0.026856,-0.022583,-0.017395,-0.013733,-0.010986,-0.010376,-0.010986,-0.014954,-0.020142,-0.028382,-0.038148,-0.049439,-0.061341,-0.072938,-0.083009,-0.09247,-0.100099,-0.105898,-0.110781,-0.114443,-0.1178,-0.120546,-0.123293,-0.126345,-0.129091,-0.130617,-0.131533,-0.132143,-0.131838,-0.130312,-0.127565,-0.124208,-0.120241,-0.116274,-0.111696,-0.107729,-0.103456,-0.099794,-0.096742,-0.094301,-0.092775,-0.09308,-0.093385,-0.094606,-0.096437,-0.097658,-0.098573,-0.098573,-0.097047,-0.094911,-0.091249,-0.086976,-0.083314,-0.079957,-0.077516,-0.07599,-0.074769,-0.074769,-0.075074,-0.075685,-0.0766,-0.077211,-0.078431,-0.080262,-0.082399,-0.085145,-0.087587,-0.090333,-0.092164,-0.092775,-0.092775,-0.091554,-0.089418,-0.086976,-0.084535,-0.082399,-0.080873,-0.079957,-0.079347,-0.079042,-0.079347,-0.079957,-0.080873,-0.081788,-0.083925,-0.085145,-0.087892,-0.091249,-0.09369,-0.095216,-0.095216,-0.094301,-0.092164,-0.089418,-0.086061,-0.083009,-0.079347,-0.077211,-0.074769,-0.073854,-0.073548,-0.073548,-0.073243,-0.072938,-0.072938,-0.072633,-0.073548,-0.073243,-0.072938,-0.072633,-0.072328,-0.072023,-0.072938,-0.072633,-0.072938,-0.074464,-0.0766,-0.079042,-0.081483,-0.083009,-0.08423,-0.083619,-0.081483,-0.077516,-0.073854,-0.069276,-0.065614,-0.062257,-0.060121,-0.058595,-0.057679,-0.057374,-0.056764,-0.055848,-0.053712,-0.052186,-0.05005,-0.048829,-0.047608,-0.048219,-0.050355,-0.054932,-0.060121,-0.065919,-0.070802,-0.075685,-0.080568,-0.085145,-0.087892,-0.090944,-0.092775,-0.095216,-0.097658,-0.100099,-0.103151,-0.106203,-0.108949,-0.111086,-0.112306,-0.112306,-0.112001,-0.112001,-0.112917,-0.111086,-0.102541,-0.083009,-0.053101,-0.011292,0.04242,0.108034,0.181888,0.257877,0.325933,0.373236,0.389105,0.366217,0.306096,0.217288,0.10956,-0.004578,-0.114748,-0.206912,-0.271916,-0.30396,-0.303349,-0.276799,-0.234379,-0.185855,-0.140993,-0.105287,-0.081483,-0.06775,-0.063172,-0.064698,-0.070802,-0.077821,-0.084535,-0.087892,-0.089723,-0.089113,-0.086061,-0.083009,-0.079042,-0.075074,-0.071412,-0.06836,-0.065919,-0.064088,-0.061952,-0.059205,-0.055238,-0.05127,-0.046998,-0.043336,-0.040589,-0.038148,-0.037232,-0.037537,-0.039368,-0.041199,-0.04303,-0.043336,-0.042725,-0.041199,-0.037842,-0.033265,-0.028382,-0.023804,-0.018006,-0.012512,-0.007935,-0.004578,-0.002441,-0.001526,-0.001221,-0.003357,-0.006409,-0.010071,-0.013733,-0.017395,-0.019226,-0.019532,-0.0177,-0.013428,-0.007019,0.00061,0.008545,0.015869,0.020752,0.022278,0.020752,0.014954,0.007019,-0.003357,-0.015869,-0.027771,-0.038453,-0.046082,-0.052186,-0.055543,-0.057069,-0.057374,-0.057679,-0.057374,-0.058289,-0.060121,-0.062257,-0.064088,-0.065919,-0.067445,-0.068971,-0.069581,-0.069581,-0.069886,-0.068055,-0.06775,-0.06775,-0.06775,-0.06714,-0.067445,-0.06775,-0.06836,-0.068666,-0.068666,-0.06836,-0.067445
3_0,0.013428,0.010071,0.00763,0.006409,0.005493,0.003967,0.002747,0.000305,-0.002441,-0.006104,-0.010071,-0.013733,-0.01709,-0.019532,-0.021057,-0.022278,-0.021973,-0.020447,-0.018921,-0.01709,-0.016175,-0.015869,-0.016785,-0.018311,-0.021057,-0.024414,-0.028077,-0.030823,-0.033265,-0.03418,-0.035706,-0.036316,-0.035401,-0.03357,-0.032044,-0.031434,-0.031128,-0.032044,-0.03357,-0.035401,-0.038453,-0.041505,-0.04303,-0.043946,-0.043946,-0.04181,-0.039063,-0.036011,-0.032654,-0.030823,-0.029908,-0.030518,-0.031739,-0.034791,-0.037842,-0.041199,-0.043946,-0.045777,-0.048524,-0.048829,-0.048829,-0.048219,-0.048219,-0.045777,-0.035401,-0.010376,0.03357,0.097047,0.178836,0.273442,0.373236,0.463264,0.528267,0.555123,0.531624,0.455024,0.328985,0.16968,-0.006104,-0.176089,-0.320745,-0.426947,-0.486458,-0.497139,-0.466011,-0.40589,-0.3299,-0.251469,-0.181582,-0.126345,-0.088502,-0.068055,-0.061646,-0.064088,-0.073243,-0.085145,-0.098573,-0.111696,-0.123903,-0.135195,-0.144045,-0.149538,-0.152285,-0.151369,-0.147707,-0.140688,-0.132448,-0.123903,-0.115969,-0.109255,-0.104067,-0.10071,-0.099794,-0.099489,-0.100099,-0.100099,-0.100099,-0.097963,-0.096132,-0.093996,-0.09247,-0.090333,-0.089113,-0.087587,-0.086061,-0.083925,-0.081483,-0.0766,-0.070192,-0.061646,-0.053101,-0.043946,-0.035401,-0.028382,-0.022889,-0.018921,-0.015869,-0.014649,-0.014038,-0.013733,-0.014038,-0.015869,-0.019837,-0.026246,-0.035401,-0.047303,-0.062257,-0.078737,-0.097353,-0.118715,-0.139773,-0.158999,-0.177005,-0.192874,-0.205997,-0.216373,-0.223392,-0.226444,-0.226444,-0.223697,-0.219425,-0.214847,-0.210574,-0.208438,-0.207218,-0.207523,-0.208438,-0.209354,-0.21088,-0.211795,-0.213016,-0.213321,-0.213016,-0.211795,-0.210269,-0.208743,-0.207218,-0.206302,-0.205386,-0.205386,-0.206302,-0.207523,-0.208743,-0.209659,-0.210574,-0.210269,-0.208743,-0.205692,-0.202335,-0.198367,-0.19379,-0.189212,-0.18555,-0.183413,-0.182498,-0.181888,-0.181888,-0.182193,-0.181888,-0.181277,-0.180667,-0.179751,-0.178225,-0.176089,-0.174258,-0.172732,-0.171511,-0.170901,-0.171817,-0.172427,-0.173342,-0.174563,-0.175174,-0.174868,-0.173342,-0.170901,-0.167239,-0.163272,-0.158694,-0.155032,-0.152285,-0.150454,-0.149538,-0.149538,-0.148928,-0.148928,-0.148318,-0.147707,-0.145266,-0.142519,-0.139467,-0.137026,-0.134279,-0.131533,-0.128786,-0.126955,-0.125429,-0.123598,-0.122072,-0.120851,-0.118715,-0.115969,-0.112917,-0.10956,-0.104067,-0.097658,-0.090333,-0.082399,-0.074769,-0.06836,-0.063783,-0.061036,-0.059815,-0.060121,-0.061036,-0.063478,-0.065614,-0.066529,-0.06775,-0.069886,-0.072023,-0.075074,-0.077516,-0.079652,-0.081178,-0.083009,-0.083009,-0.081788,-0.079347,-0.074464,-0.070192,-0.064698,-0.059815,-0.055238,-0.050965,-0.047303,-0.043336,-0.038758,-0.033875,-0.028382,-0.025025,-0.022889,-0.021668,-0.022583,-0.024414,-0.027466,-0.031739,-0.036316,-0.039979,-0.043946,-0.047608,-0.05127,-0.055238,-0.060121,-0.066224,-0.072938,-0.079957,-0.085756,-0.090944,-0.094606,-0.097353,-0.098573,-0.098878,-0.098878,-0.098268,-0.097353,-0.097047,-0.096742,-0.097047,-0.097353,-0.097353,-0.097963,-0.098878,-0.100099,-0.102235,-0.104677,-0.106508,-0.10956,-0.112612,-0.117494,-0.122377,-0.124208,-0.116274,-0.09308,-0.050965,0.011902,0.094911,0.191959,0.295415,0.388495,0.455329,0.48127,0.456245,0.378424,0.25391,0.096742,-0.074159,-0.237125,-0.37232,-0.466011,-0.512398,-0.510567,-0.469978,-0.402228,-0.32105,-0.240177,-0.169986,-0.115969,-0.080568,-0.061646,-0.056458,-0.060121,-0.06836,-0.078126,-0.087587,-0.094911,-0.098878,-0.099489,-0.097047,-0.09308,-0.087587,-0.082399,-0.077211,-0.073854,-0.071717,-0.070802,-0.070802,-0.071717,-0.072633,-0.072633,-0.071107,-0.068666,-0.064698,-0.060121,-0.055238,-0.050355,-0.046387,-0.043641,-0.042115,-0.041199,-0.040284,-0.039673,-0.038453,-0.035706,-0.031434,-0.02533,-0.017395,-0.007935,0.002747,0.014343,0.02472,0.03418,0.042115,0.046693,0.049439,0.049744,0.05005,0.049134,0.048524,0.047608,0.046998,0.044556,0.040589,0.035401,0.026856,0.015259,0.001221,-0.014038,-0.029908,-0.044862,-0.057374,-0.068666,-0.077516,-0.08423,-0.089113,-0.092164,-0.095216,-0.097353,-0.099794,-0.10071,-0.101625,-0.102846,-0.103456,-0.103761,-0.104067,-0.104982,-0.105898,-0.107118,-0.109255,-0.111086,-0.112612,-0.113832,-0.115358,-0.115969,-0.115663,-0.114748,-0.112917,-0.109865,-0.106813,-0.103761,-0.10071,-0.098878,-0.097353,-0.097353,-0.097658,-0.098573,-0.100099,-0.10193,-0.102846,-0.102846,-0.103151,-0.103151,-0.104067,-0.105287,-0.106813,-0.108034,-0.110781,-0.113222,-0.115053,-0.116884,-0.117494,-0.11841,-0.11902,-0.121462,-0.122988,-0.124514,-0.126345,-0.127871,-0.128786,-0.128176,-0.12604,-0.123293,-0.11902,-0.113527,-0.108949,-0.104372,-0.10071,-0.098268,-0.096132,-0.095827,-0.096742,-0.097658,-0.098878,-0.099489,-0.099794,-0.099794,-0.098573,-0.097047,-0.094301,-0.090944,-0.086976,-0.083009,-0.079347,-0.07599,-0.073854,-0.071412,-0.070802,-0.071412,-0.073243,-0.07599,-0.079652,-0.085451,-0.091249,-0.097353,-0.102235,-0.106203,-0.108034,-0.107729,-0.104982,-0.101015,-0.096437,-0.091554,-0.087587,-0.085145,-0.083925,-0.08423,-0.085451,-0.088197,-0.091554,-0.095216,-0.098878,-0.102235,-0.104982,-0.107424,-0.108034,-0.108644,-0.107729,-0.105592,-0.102541,-0.098878,-0.095521,-0.09247,-0.090028,-0.089418,-0.090028,-0.090944,-0.09247,-0.094301,-0.095216,-0.094911,-0.091859,-0.078126,-0.048829,0.001526,0.072938,0.163272,0.267033,0.374456,0.470588,0.537728,0.563363,0.535286,0.449836,0.315251,0.145266,-0.038148,-0.213931,-0.361334,-0.464485,-0.516365,-0.516976,-0.474556,-0.401923,-0.314641,-0.229191,-0.155642,-0.101015,-0.06714,-0.052796,-0.052796,-0.061952,-0.074769,-0.087282,-0.097963,-0.104067,-0.107118,-0.107424,-0.104982,-0.102235,-0.099489,-0.096742,-0.095216,-0.094301,-0.094911,-0.095827,-0.097047,-0.097963,-0.098573,-0.098573,-0.096742,-0.093385,-0.090028,-0.08484,-0.079652,-0.074159,-0.068971,-0.065003,-0.062257,-0.060121,-0.058595,-0.057374,-0.056153,-0.052796,-0.046998,-0.039979,-0.031739,-0.021363,-0.010986,-0.001526,0.006409,0.012818,0.01709,0.019837,0.019837,0.020142,0.019532,0.018921,0.018311,0.016785,0.014649,0.010071,0.003052,-0.005798,-0.0177,-0.032044,-0.047608,-0.063783,-0.078737,-0.092164,-0.103456,-0.112612,-0.119936,-0.125429,-0.129397,-0.132143,-0.133364,-0.133059,-0.131838,-0.129397,-0.12604,-0.122072,-0.116884,-0.111391,-0.106508,-0.102541,-0.099794,-0.098878,-0.098878,-0.100404,-0.102541,-0.104982,-0.108034,-0.111086,-0.113527,-0.115663,-0.116579,-0.117494,-0.116884,-0.114748,-0.112306,-0.108339,-0.103761,-0.099489,-0.096132,-0.094301,-0.09308,-0.09369,-0.094606,-0.095827,-0.097963,-0.10071,-0.102541,-0.104372,-0.104372,-0.104372,-0.104372,-0.104372,-0.104067,-0.103761,-0.103151,-0.10132,-0.099489,-0.097658,-0.094606,-0.091249,-0.087587,-0.08423,-0.081483,-0.078737,-0.078126,-0.078126,-0.079347,-0.080568,-0.081178,-0.082399,-0.083009,-0.082399,-0.081483,-0.079347,-0.077211,-0.07538,-0.074464,-0.073854,-0.074464,-0.074769,-0.074769,-0.074464,-0.072938,-0.070497,-0.067445,-0.064393,-0.061341,-0.057679,-0.054932,-0.052796,-0.05127,-0.05005,-0.049134,-0.049439,-0.05005,-0.05066,-0.05127,-0.052186,-0.053101,-0.053101,-0.051881,-0.048829,-0.045167,-0.041505,-0.036927,-0.03357,-0.032349,-0.033875,-0.037232,-0.042725,-0.049134,-0.055238,-0.060426,-0.063783,-0.064698,-0.061646,-0.056153,-0.048524,-0.039673,-0.030823,-0.02472,-0.020447,-0.018921,-0.021363,-0.026856,-0.034485,-0.04303,-0.050965,-0.057984,-0.061952,-0.063172,-0.061646,-0.057679,-0.051881,-0.045472,-0.038758,-0.032654,-0.028382,-0.02533,-0.024414,-0.02533,-0.027161,-0.029908,-0.032349,-0.034485,-0.035706,-0.036927,-0.036927,-0.033875,-0.020447,0.00763,0.054932,0.119326,0.201114,0.29572,0.394598,0.482795,0.544442,0.56672,0.538643,0.457465,0.329595,0.16907,-0.004578,-0.170291,-0.309148,-0.407416,-0.45655,-0.457771,-0.419013,-0.351263,-0.268559,-0.18677,-0.115969,-0.063478,-0.028687,-0.012207,-0.00763,-0.012818,-0.022278,-0.032349,-0.04242,-0.050355,-0.055238,-0.056153,-0.054322,-0.050355,-0.044862,-0.037537,-0.029603,-0.022278,-0.015259,-0.011597,-0.009766,-0.009155,-0.008545,-0.008545,-0.00885,-0.008545,-0.007324,-0.004883,-0.002441,0,0.001831,0.002747,0.004578,0.006104,0.00763,0.010681,0.014343,0.018921,0.024414,0.029603,0.034485,0.040589,0.046387,0.051881,0.057069,0.061952,0.065919,0.068666,0.070497,0.071412,0.071107,0.068971,0.065003,0.05951,0.052186,0.042725,0.030213,0.014954,-0.000916,-0.018311,-0.035096,-0.05127,-0.065003,-0.076295,-0.085145,-0.091249,-0.096132,-0.099794,-0.102846,-0.104677,-0.106203,-0.107424,-0.107729,-0.107424,-0.105898,-0.103151,-0.100099,-0.096437,-0.092164,-0.088197,-0.085145,-0.083009,-0.081483,-0.080568,-0.079957,-0.080568,-0.082094,-0.083619,-0.084535,-0.085451,-0.085451,-0.083009,-0.080568,-0.077211,-0.073854,-0.070802,-0.06836,-0.066835,-0.065919,-0.066529,-0.06775,-0.06836,-0.070802,-0.072328,-0.073243,-0.072633,-0.072328,-0.070802,-0.069276,-0.066224,-0.063783,-0.060121,-0.057374,-0.055543,-0.054932,-0.055543,-0.057374,-0.059205,-0.061036,-0.062562,-0.063478,-0.063478,-0.062562,-0.060426,-0.057984,-0.055543,-0.053712,-0.051881,-0.05066,-0.05005,-0.049744,-0.049134,-0.049439,-0.05005,-0.051881,-0.054322,-0.057679,-0.060731,-0.064393,-0.068055,-0.071717,-0.074769,-0.077516,-0.079652,-0.081178,-0.082399,-0.08423,-0.085451,-0.085451,-0.086061,-0.086061,-0.085756,-0.08484,-0.083314,-0.082399,-0.082094,-0.083619,-0.085756,-0.086671,-0.087892,-0.088808,-0.088502,-0.088808,-0.088808,-0.087587,-0.086366,-0.085451,-0.085756,-0.086366,-0.088808,-0.091554,-0.094606,-0.097353,-0.098573,-0.097353,-0.094301,-0.090944,-0.085756,-0.080568,-0.074769,-0.069276,-0.064393,-0.061341,-0.060121,-0.060121,-0.061036,-0.061646,-0.062257,-0.062867,-0.063783,-0.065919,-0.068666,-0.072633,-0.077821,-0.083009,-0.088502,-0.09247,-0.097047,-0.100404,-0.10193,-0.102541,-0.102846
4_0,0.060057,0.064323,0.068589,0.073524,0.07779,0.08055,0.083561,0.085987,0.088747,0.090002,0.090002,0.090002,0.089416,0.088496,0.087576,0.085987,0.082975,0.08055,0.078375,0.076535,0.076284,0.07963,0.085987,0.094853,0.104639,0.114677,0.125383,0.133915,0.13885,0.14069,0.13977,0.136341,0.131489,0.127558,0.125049,0.123292,0.122372,0.121703,0.120197,0.116266,0.110411,0.102799,0.094602,0.087576,0.081135,0.076535,0.074109,0.074109,0.075949,0.07871,0.082055,0.084816,0.086656,0.086321,0.086321,0.086656,0.087576,0.088496,0.090002,0.091842,0.094602,0.096108,0.098533,0.100374,0.102465,0.103719,0.104639,0.105225,0.104639,0.106145,0.113506,0.132075,0.16662,0.21572,0.278871,0.350638,0.425417,0.49802,0.559081,0.598394,0.60818,0.583421,0.52579,0.439134,0.329225,0.206602,0.082641,-0.02961,-0.123041,-0.191379,-0.230776,-0.241398,-0.226761,-0.189873,-0.140105,-0.085485,-0.032705,0.012463,0.049099,0.075029,0.091507,0.100959,0.106145,0.109825,0.111666,0.11292,0.115011,0.119612,0.124463,0.130235,0.134584,0.139436,0.144956,0.149473,0.153739,0.157754,0.16202,0.165031,0.16754,0.168126,0.166871,0.16386,0.160765,0.157168,0.152233,0.146462,0.14069,0.13609,0.133664,0.131489,0.129984,0.129398,0.128478,0.129649,0.131155,0.13425,0.137595,0.140941,0.145876,0.151982,0.158674,0.165951,0.172977,0.180589,0.18887,0.195896,0.202922,0.208693,0.213879,0.218145,0.221826,0.225506,0.227597,0.230943,0.236212,0.242569,0.251101,0.261808,0.271594,0.282217,0.290498,0.294429,0.292589,0.284057,0.269168,0.246835,0.219651,0.187949,0.155328,0.124212,0.096359,0.073858,0.057297,0.045168,0.037807,0.035047,0.035633,0.037807,0.039648,0.040819,0.041739,0.041488,0.042073,0.042408,0.043328,0.045419,0.047845,0.051525,0.05554,0.059137,0.062566,0.063737,0.064323,0.063737,0.062566,0.058551,0.054871,0.050605,0.046674,0.044248,0.041739,0.040233,0.040233,0.039648,0.040568,0.042659,0.045419,0.048765,0.052445,0.057966,0.064072,0.069843,0.074109,0.078124,0.08055,0.080801,0.079044,0.075615,0.071349,0.067418,0.065243,0.063737,0.064323,0.066832,0.072269,0.078375,0.085987,0.093013,0.100039,0.105894,0.10924,0.110411,0.109825,0.107651,0.105225,0.103134,0.101294,0.101879,0.102799,0.105225,0.108571,0.111666,0.113171,0.11292,0.111331,0.108905,0.106145,0.103134,0.101294,0.101294,0.102799,0.10556,0.10924,0.112251,0.115011,0.117772,0.118692,0.119277,0.119277,0.119863,0.120197,0.121117,0.122623,0.123878,0.124798,0.124463,0.122958,0.119277,0.113506,0.10648,0.098199,0.090336,0.08331,0.07779,0.073524,0.070178,0.068338,0.068589,0.070178,0.072269,0.073858,0.076535,0.079881,0.083561,0.086321,0.090002,0.094268,0.097948,0.101294,0.105225,0.108905,0.112586,0.115011,0.116852,0.118357,0.117772,0.115346,0.110745,0.104974,0.098199,0.090922,0.084481,0.078375,0.073189,0.069509,0.067752,0.067083,0.067083,0.068923,0.070429,0.072269,0.074695,0.07779,0.07963,0.079295,0.077204,0.073524,0.068923,0.062817,0.05646,0.050354,0.044834,0.043579,0.042993,0.045419,0.047845,0.050354,0.05186,0.054285,0.063152,0.081721,0.115346,0.165951,0.229772,0.30271,0.379328,0.454358,0.517509,0.558412,0.567612,0.541683,0.480287,0.389031,0.273685,0.144287,0.014638,-0.104723,-0.204511,-0.277115,-0.318602,-0.328723,-0.3089,-0.266492,-0.208191,-0.1432,-0.079044,-0.022919,0.022584,0.057046,0.080215,0.095522,0.104974,0.108905,0.11108,0.112,0.113171,0.11292,0.113506,0.11292,0.110411,0.1074,0.104305,0.101294,0.098533,0.096693,0.095773,0.097279,0.099119,0.103385,0.10832,0.116266,0.124798,0.132409,0.13977,0.146462,0.150728,0.153739,0.154408,0.154073,0.152819,0.151982,0.152233,0.154408,0.157754,0.162605,0.167206,0.172726,0.178498,0.184018,0.190124,0.19531,0.199827,0.204762,0.209279,0.213879,0.2194,0.22492,0.229437,0.234623,0.239224,0.24533,0.25177,0.259382,0.267579,0.277366,0.288658,0.299615,0.310322,0.319522,0.325294,0.327385,0.324374,0.315842,0.302124,0.283137,0.259047,0.232783,0.205013,0.177912,0.152568,0.130569,0.112586,0.098868,0.090002,0.08515,0.082975,0.083896,0.085987,0.089416,0.091842,0.093933,0.095188,0.095773,0.095188,0.094268,0.092762,0.090587,0.087827,0.08515,0.08147,0.07963,0.078375,0.077455,0.078124,0.079044,0.080801,0.081721,0.08331,0.08423,0.084481,0.083896,0.082975,0.08147,0.079295,0.077455,0.075364,0.073189,0.071349,0.069843,0.068338,0.066163,0.064657,0.063403,0.063737,0.064657,0.066832,0.068923,0.072269,0.076869,0.081135,0.08423,0.086907,0.088496,0.088496,0.088161,0.086656,0.084481,0.08147,0.078375,0.075615,0.074695,0.073858,0.073189,0.073524,0.074109,0.075949,0.078375,0.080215,0.08239,0.084816,0.087576,0.090002,0.090587,0.089416,0.087576,0.085987,0.08423,0.082055,0.080215,0.078124,0.076869,0.076535,0.076535,0.076535,0.076535,0.076535,0.076869,0.077455,0.079295,0.081135,0.08423,0.086907,0.088747,0.089667,0.090002,0.088747,0.087576,0.086321,0.084816,0.083896,0.084816,0.086907,0.090336,0.093682,0.097948,0.102799,0.108905,0.116517,0.123543,0.129649,0.13517,0.141527,0.148553,0.154073,0.159845,0.16478,0.169046,0.174566,0.177243,0.177243,0.174817,0.168711,0.160765,0.150393,0.138516,0.127558,0.116852,0.10832,0.102799,0.099453,0.098533,0.097948,0.098868,0.099119,0.099119,0.099119,0.099788,0.099119,0.097279,0.095773,0.093933,0.091842,0.088747,0.085401,0.082641,0.080215,0.07779,0.074695,0.074109,0.074109,0.075615,0.077455,0.080215,0.081721,0.080801,0.081721,0.089667,0.11016,0.145876,0.197401,0.262393,0.335666,0.410444,0.481542,0.537417,0.570373,0.571544,0.538588,0.473596,0.381754,0.27126,0.149222,0.028356,-0.081554,-0.172726,-0.239558,-0.27954,-0.293342,-0.280795,-0.247254,-0.19807,-0.14253,-0.08766,-0.038477,0.00092,0.029861,0.049099,0.059471,0.063152,0.061312,0.058217,0.054285,0.051525,0.049685,0.048514,0.048514,0.049685,0.05094,0.052111,0.053951,0.055205,0.05554,0.055791,0.05554,0.055205,0.05462,0.053951,0.0537,0.054285,0.055791,0.059137,0.061897,0.064323,0.067083,0.069258,0.070429,0.071098,0.070763,0.069509,0.068003,0.067083,0.067752,0.070429,0.073189,0.076535,0.07963,0.082975,0.087576,0.092427,0.097028,0.101879,0.1074,0.113506,0.120532,0.128144,0.135504,0.143116,0.150142,0.157168,0.164445,0.171806,0.180338,0.19071,0.201416,0.211788,0.220571,0.227346,0.231277,0.229437,0.220905,0.205933,0.183349,0.157168,0.126889,0.095188,0.064323,0.036553,0.014303,-0.001589,-0.011292,-0.014052,-0.013467,-0.009201,-0.002175,0.005186,0.011878,0.017064,0.020409,0.022249,0.023755,0.023755,0.023504,0.022835,0.020995,0.019489,0.018235,0.017984,0.017398,0.017398,0.017649,0.018235,0.019489,0.020409,0.020995,0.022835,0.024675,0.027101,0.028941,0.029276,0.027435,0.025595,0.022835,0.019489,0.015223,0.010372,0.005437,0.003011,0.001757,0.003011,0.005771,0.009703,0.013049,0.017064,0.020075,0.02317,0.026515,0.029527,0.030781,0.030781,0.029861,0.02869,0.02593,0.02317,0.020075,0.018235,0.017064,0.016729,0.018904,0.022249,0.02593,0.031367,0.036302,0.041488,0.044499,0.046005,0.047594,0.048765,0.049099,0.047594,0.046674,0.044834,0.043579,0.042659,0.042993,0.042993,0.043328,0.045168,0.047259,0.05186,0.05646,0.061646,0.066497,0.071098,0.074695,0.076869,0.079044,0.080215,0.080215,0.07963,0.079881,0.080215,0.080801,0.081721,0.083561,0.085987,0.087827,0.090587,0.093682,0.096693,0.101294,0.106814,0.112,0.114426,0.116517,0.118357,0.118692,0.115931,0.111331,0.10648,0.102214,0.100039,0.099453,0.099788,0.100959,0.103385,0.106145,0.10924,0.11108,0.11108,0.109825,0.107985,0.106814,0.10556,0.104639,0.104639,0.10556,0.107651,0.11016,0.112586,0.114677,0.115931,0.115931,0.116266,0.116266,0.115931,0.115011,0.112586,0.110411,0.107985,0.104054,0.099453,0.093933,0.088496,0.08331,0.079881,0.077455,0.077204,0.079295,0.08423,0.090922,0.099119,0.107985,0.115931,0.122623,0.127558,0.130235,0.131155,0.129984,0.127558,0.124798,0.121452,0.119277,0.118106,0.118692,0.120532,0.124463,0.130569,0.139436,0.149222,0.158005,0.164111,0.166871,0.167206,0.162605,0.154994,0.144287,0.132409,0.120197,0.109491,0.102214,0.098199,0.097613,0.099453,0.103134,0.106814,0.111666,0.116517,0.120783,0.123878,0.125969,0.126638,0.126638,0.125718,0.123878,0.122038,0.120783,0.119863,0.119612,0.119863,0.121117,0.122038,0.123543,0.124212,0.124463,0.124798,0.124463,0.123292,0.121452,0.118357,0.118106,0.125718,0.144622,0.179083,0.229772,0.292924,0.362516,0.433614,0.498606,0.54896,0.575559,0.571293,0.533987,0.466904,0.374142,0.260888,0.137261,0.015223,-0.093431,-0.184353,-0.25177,-0.292087,-0.303965,-0.289661,-0.25428,-0.205682,-0.149557,-0.094017,-0.045168,-0.005521,0.023504,0.042993,0.054285,0.057631,0.05646,0.052445,0.048179,0.044834,0.042993,0.041739,0.041739,0.042993,0.046339,0.05094,0.05646,0.061646,0.066832,0.072018,0.075364,0.07779,0.078375,0.077204,0.074109,0.070763,0.066832,0.062817,0.059806,0.058551,0.059137,0.062232,0.065912,0.070763,0.075364,0.07963,0.083896,0.088747,0.093013,0.095773,0.097613,0.098199,0.098533,0.098199,0.098533,0.100374,0.101879,0.104639,0.108571,0.114091,0.120197,0.126638,0.13333,0.139436,0.144622,0.149222,0.153739,0.159259,0.165031,0.172057,0.179418,0.187615,0.194976,0.201416,0.204762,0.204762,0.200747,0.192801,0.179752,0.161685,0.140021,0.115011,0.090922
5_0,-0.052498,-0.061038,-0.069578,-0.075381,-0.078433,-0.078131,-0.077214,-0.079048,-0.083318,-0.084536,-0.080869,-0.066225,-0.038758,0.006104,0.07263,0.159,0.257867,0.351559,0.424805,0.465698,0.467833,0.432428,0.361933,0.265804,0.157167,0.051267,-0.039675,-0.105598,-0.14526,-0.159917,-0.159,-0.146793,-0.131533,-0.116575,-0.105598,-0.098264,-0.093391,-0.091243,-0.090025,-0.09064,-0.090025,-0.089422,-0.088505,-0.085755,-0.083921,-0.081786,-0.079651,-0.076599,-0.074162,-0.072329,-0.070797,-0.068662,-0.065924,-0.06409,-0.062256,-0.061339,-0.05982,-0.05982,-0.061038,-0.061641,-0.062256,-0.062558,-0.062558,-0.061955,-0.060737,-0.058288,-0.055236,-0.050966,-0.045779,-0.039373,-0.03327,-0.025947,-0.019844,-0.014644,-0.012208,-0.013124,-0.01526,-0.018613,-0.023197,-0.028685,-0.032956,-0.036007,-0.035706,-0.032654,-0.027467,-0.021062,-0.013426,-0.005802,0.000301,0.004886,0.007623,0.00854,0.007937,0.004572,-0.001532,-0.009156,-0.01801,-0.027769,-0.03754,-0.048529,-0.057371,-0.06409,-0.068975,-0.071412,-0.070797,-0.067443,-0.06409,-0.061339,-0.057986,-0.053402,-0.049132,-0.045779,-0.043028,-0.041194,-0.039976,-0.039976,-0.040592,-0.041508,-0.043342,-0.04608,-0.049132,-0.051267,-0.051581,-0.050664,-0.049747,-0.048215,-0.04883,-0.049132,-0.049747,-0.050664,-0.051581,-0.052498,-0.053402,-0.052184,-0.050966,-0.049747,-0.048215,-0.045779,-0.043643,-0.042111,-0.040592,-0.038143,-0.035091,-0.03327,-0.032039,-0.028685,-0.025031,-0.023197,-0.02228,-0.022582,-0.023197,-0.024114,-0.023498,-0.024114,-0.025332,-0.027166,-0.028384,-0.029602,-0.031436,-0.033571,-0.035091,-0.035706,-0.034789,-0.03327,-0.031134,-0.028384,-0.025633,-0.024717,-0.023498,-0.022582,-0.022896,-0.023498,-0.024415,-0.025332,-0.026249,-0.025031,-0.0238,-0.024114,-0.025031,-0.025633,-0.025947,-0.025633,-0.025031,-0.024717,-0.023197,-0.01953,-0.012509,-0.003052,0.009457,0.023197,0.036924,0.049747,0.061339,0.071412,0.079035,0.082087,0.079651,0.073547,0.064693,0.053101,0.037841,0.019831,-0.000917,-0.020145,-0.03754,-0.051581,-0.061955,-0.067142,-0.068975,-0.066526,-0.061339,-0.054633,-0.046997,-0.040592,-0.036321,-0.034488,-0.035405,-0.03754,-0.039675,-0.042111,-0.045779,-0.051581,-0.058903,-0.067443,-0.075381,-0.078734,-0.073547,-0.056454,-0.022582,0.031737,0.107118,0.200195,0.300594,0.389714,0.45349,0.484612,0.47729,0.432428,0.354611,0.254212,0.144344,0.040592,-0.043945,-0.101316,-0.133367,-0.142209,-0.135502,-0.119024,-0.101014,-0.086056,-0.077516,-0.073848,-0.075079,-0.080266,-0.086973,-0.093692,-0.097661,-0.097962,-0.095526,-0.091858,-0.086973,-0.081485,-0.075381,-0.070495,-0.067745,-0.066225,-0.065308,-0.06561,-0.066225,-0.065924,-0.065308,-0.063789,-0.061339,-0.058589,-0.055851,-0.052498,-0.049446,-0.046695,-0.042111,-0.035706,-0.028384,-0.022582,-0.017395,-0.014644,-0.012509,-0.012509,-0.015875,-0.021062,-0.026852,-0.032039,-0.035405,-0.036321,-0.035091,-0.030218,-0.023498,-0.014644,-0.005187,0.00275,0.007937,0.011291,0.01281,0.013124,0.012509,0.010374,0.007937,0.005488,0.003052,0.000301,-0.003052,-0.007322,-0.013426,-0.021363,-0.029904,-0.039059,-0.046997,-0.053716,-0.057685,-0.05982,-0.060121,-0.057069,-0.052498,-0.046394,-0.041194,-0.038143,-0.036321,-0.036321,-0.039059,-0.043342,-0.049446,-0.055851,-0.061955,-0.066526,-0.068975,-0.069892,-0.069892,-0.069578,-0.068975,-0.067745,-0.065924,-0.063475,-0.061339,-0.058589,-0.055236,-0.052498,-0.048529,-0.044246,-0.039976,-0.037238,-0.036007,-0.035706,-0.035091,-0.034488,-0.034186,-0.034186,-0.035706,-0.037841,-0.04029,-0.042425,-0.044246,-0.047914,-0.052184,-0.057069,-0.060737,-0.063173,-0.064391,-0.065308,-0.065308,-0.06409,-0.061339,-0.057986,-0.055236,-0.051581,-0.047914,-0.043643,-0.039675,-0.03754,-0.035706,-0.033872,-0.031436,-0.030519,-0.029301,-0.028384,-0.027166,-0.025332,-0.022896,-0.019844,-0.014343,-0.007021,0.000917,0.010073,0.01953,0.029301,0.037841,0.044246,0.047914,0.049433,0.048516,0.045465,0.039976,0.033257,0.024717,0.014958,0.005187,-0.003969,-0.01526,-0.026852,-0.037238,-0.046394,-0.053402,-0.058288,-0.061641,-0.06409,-0.06684,-0.068662,-0.069578,-0.070495,-0.071412,-0.07263,-0.073547,-0.074464,-0.074162,-0.072944,-0.072944,-0.075381,-0.074464,-0.067142,-0.049747,-0.020145,0.024415,0.086973,0.16906,0.263669,0.356445,0.429992,0.474238,0.48431,0.459292,0.398254,0.308832,0.202028,0.092461,-0.005488,-0.082703,-0.134284,-0.161135,-0.167541,-0.161437,-0.147094,-0.130001,-0.115055,-0.102848,-0.094295,-0.088807,-0.087287,-0.088505,-0.090942,-0.093077,-0.095212,-0.095827,-0.096129,-0.09491,-0.091858,-0.08789,-0.084235,-0.080869,-0.078433,-0.077817,-0.076599,-0.076298,-0.075996,-0.075996,-0.075079,-0.073547,-0.072027,-0.070495,-0.069578,-0.067443,-0.06561,-0.063789,-0.061955,-0.059506,-0.055236,-0.052184,-0.049747,-0.048215,-0.046394,-0.045163,-0.043643,-0.042727,-0.042727,-0.042111,-0.039976,-0.03754,-0.035405,-0.03327,-0.030218,-0.02655,-0.022896,-0.018927,-0.014644,-0.010374,-0.006719,-0.005187,-0.005187,-0.006719,-0.010688,-0.016176,-0.023197,-0.03082,-0.038456,-0.044862,-0.050664,-0.054017,-0.055851,-0.057371,-0.058903,-0.061038,-0.063789,-0.067142,-0.071111,-0.075079,-0.078433,-0.079651,-0.080568,-0.080568,-0.078131,-0.074765,-0.070495,-0.066225,-0.062872,-0.060737,-0.05982,-0.059204,-0.059506,-0.059506,-0.059506,-0.05982,-0.059506,-0.056454,-0.052799,-0.049747,-0.046997,-0.045163,-0.043945,-0.044862,-0.045779,-0.046695,-0.048215,-0.04883,-0.04883,-0.047612,-0.04456,-0.042111,-0.042425,-0.043945,-0.046695,-0.05035,-0.054934,-0.059204,-0.062256,-0.063789,-0.063789,-0.062256,-0.059204,-0.053716,-0.048529,-0.043945,-0.039976,-0.036924,-0.03327,-0.029602,-0.028384,-0.028987,-0.028685,-0.028083,-0.025633,-0.024114,-0.018927,-0.011291,-0.002135,0.00854,0.019831,0.030205,0.039059,0.045779,0.048215,0.045465,0.038758,0.028384,0.014644,-0.000917,-0.015561,-0.030519,-0.04456,-0.055851,-0.062872,-0.065924,-0.065308,-0.063173,-0.05982,-0.056768,-0.053402,-0.049132,-0.046394,-0.046997,-0.050049,-0.053101,-0.056768,-0.061339,-0.066225,-0.071713,-0.079651,-0.087588,-0.092474,-0.089108,-0.074162,-0.042727,0.008239,0.080254,0.170593,0.273126,0.372307,0.452272,0.49805,0.505372,0.47302,0.40314,0.304864,0.190122,0.074162,-0.02655,-0.102546,-0.150447,-0.171208,-0.170593,-0.157468,-0.137637,-0.117191,-0.098879,-0.084235,-0.074765,-0.068975,-0.065924,-0.065007,-0.06561,-0.067142,-0.068059,-0.068662,-0.068975,-0.070797,-0.073246,-0.073547,-0.074765,-0.075682,-0.075996,-0.075682,-0.075079,-0.074162,-0.073246,-0.071713,-0.068662,-0.065924,-0.062558,-0.059204,-0.055851,-0.052799,-0.04883,-0.04608,-0.043342,-0.04029,-0.03754,-0.035405,-0.033571,-0.031436,-0.029602,-0.029301,-0.028384,-0.02655,-0.025633,-0.024415,-0.022582,-0.01953,-0.017093,-0.014041,-0.011291,-0.00854,-0.005802,-0.00275,0,0.003052,0.007021,0.010374,0.012509,0.012509,0.011592,0.00854,0.002436,-0.005187,-0.01374,-0.023197,-0.032654,-0.041508,-0.05035,-0.057069,-0.062558,-0.067142,-0.070797,-0.07263,-0.072944,-0.072329,-0.070797,-0.069277,-0.066526,-0.064391,-0.062872,-0.060737,-0.058589,-0.056454,-0.054633,-0.053716,-0.052799,-0.05035,-0.046695,-0.043945,-0.043028,-0.042727,-0.043028,-0.044246,-0.046997,-0.050966,-0.056454,-0.062256,-0.066526,-0.070194,-0.07263,-0.074162,-0.073246,-0.070797,-0.06684,-0.061955,-0.057069,-0.052799,-0.049132,-0.046394,-0.044246,-0.044246,-0.045779,-0.04608,-0.047612,-0.04883,-0.05035,-0.050049,-0.04883,-0.047298,-0.043028,-0.038143,-0.031737,-0.0238,-0.014644,-0.003353,0.009457,0.0238,0.040592,0.055236,0.066526,0.072329,0.073246,0.070495,0.061955,0.047298,0.027467,0.006104,-0.015561,-0.033571,-0.047914,-0.057986,-0.063173,-0.064391,-0.062256,-0.058589,-0.053716,-0.049132,-0.04456,-0.041194,-0.041194,-0.042727,-0.045163,-0.047612,-0.049446,-0.052498,-0.057069,-0.061339,-0.066526,-0.072944,-0.077817,-0.076599,-0.064391,-0.038456,0.005488,0.066526,0.149229,0.248108,0.347904,0.433044,0.490414,0.511162,0.492248,0.437012,0.348809,0.242607,0.128167,0.021363,-0.064693,-0.122378,-0.15473,-0.162655,-0.15625,-0.141292,-0.122993,-0.107733,-0.095212,-0.088807,-0.086973,-0.087588,-0.089422,-0.091557,-0.091243,-0.089422,-0.085755,-0.081183,-0.075682,-0.071713,-0.067443,-0.061955,-0.057685,-0.056152,-0.055851,-0.056152,-0.058288,-0.059506,-0.061955,-0.063475,-0.065308,-0.065924,-0.066225,-0.063173,-0.05982,-0.055537,-0.052184,-0.049132,-0.047298,-0.045477,-0.043342,-0.042727,-0.04181,-0.039976,-0.037238,-0.033571,-0.028987,-0.024717,-0.021062,-0.01801,-0.016792,-0.015561,-0.014958,-0.014958,-0.013124,-0.009457,-0.003969,0.00152,0.007021,0.010675,0.013124,0.013124,0.010374,0.00427,-0.004886,-0.014644,-0.025332,-0.033872,-0.04181,-0.047914,-0.052799,-0.056454,-0.058903,-0.058903,-0.056768,-0.053716,-0.049747,-0.044862,-0.039675,-0.036007,-0.033571,-0.033571,-0.036007,-0.039373,-0.04456,-0.049747,-0.055537,-0.058903,-0.060737,-0.061641,-0.058903,-0.054934,-0.050966,-0.046997,-0.043945,-0.040592,-0.03754,-0.035706,-0.034488,-0.032039,-0.028987,-0.027769,-0.02655,-0.027769,-0.028384,-0.030218,-0.032654,-0.034789,-0.036924,-0.038456,-0.038456,-0.036623,-0.032654,-0.029602,-0.026249,-0.025332,-0.025332,-0.02655,-0.029301,-0.031737,-0.033571,-0.034789,-0.034488,-0.030519,-0.0238,-0.01374,0.000603,0.015561,0.032353,0.049132,0.063475,0.072932,0.079035,0.079651,0.075682,0.066225,0.051882,0.035091,0.017395,0.000917,-0.013426,-0.024415,-0.03327,-0.039059,-0.042727,-0.044862,-0.044246,-0.043945,-0.043342,-0.042727,-0.043945,-0.044246,-0.045163,-0.046695,-0.049132,-0.051267,-0.053716,-0.056454,-0.059204,-0.063173,-0.068662,-0.074162,-0.076599,-0.067443,-0.047298,-0.009457,0.045163,0.121159,0.216371,0.324092,0.415034,0.482791,0.514528,0.508424,0.463563,0.380244,0.274659,0.15625,0.04181,-0.056768,-0.123897,-0.166322,-0.18128,-0.176696,-0.160834,-0.139471,-0.117191,-0.098264
6_0,0.0821,0.084229,0.086051,0.087584,0.087891,0.086971,0.086051,0.084536,0.084229,0.084229,0.086358,0.090326,0.09552,0.100407,0.105278,0.110472,0.115666,0.12115,0.124215,0.12757,0.130312,0.13244,0.134586,0.137941,0.141909,0.145877,0.150458,0.155022,0.160216,0.167232,0.174248,0.180669,0.186459,0.189507,0.189507,0.18525,0.17791,0.166619,0.152587,0.135795,0.119327,0.103762,0.090019,0.080874,0.073858,0.068971,0.067131,0.065922,0.065616,0.065616,0.065616,0.065922,0.067438,0.068357,0.068971,0.070197,0.070197,0.070197,0.070793,0.070503,0.069277,0.067131,0.065616,0.065003,0.06439,0.063776,0.063163,0.062567,0.061341,0.059808,0.058906,0.059502,0.061035,0.064083,0.068664,0.072325,0.075987,0.079342,0.081181,0.0821,0.079955,0.075374,0.070197,0.065003,0.060728,0.057986,0.055841,0.056147,0.057067,0.05768,0.059212,0.059502,0.060115,0.059808,0.059502,0.060115,0.061341,0.063163,0.065616,0.068664,0.071712,0.074761,0.077213,0.079035,0.079955,0.080261,0.079342,0.078133,0.0766,0.07568,0.075374,0.0766,0.078133,0.080568,0.08331,0.085455,0.086051,0.086051,0.084842,0.0821,0.078133,0.074471,0.071099,0.068664,0.066842,0.066535,0.065922,0.066842,0.067744,0.068051,0.069277,0.06989,0.071406,0.074165,0.0766,0.078729,0.080568,0.080874,0.081181,0.081181,0.080261,0.079342,0.078422,0.076906,0.074471,0.072632,0.073245,0.074761,0.077213,0.078133,0.080568,0.083616,0.087584,0.091552,0.093987,0.09552,0.096746,0.098262,0.100714,0.105891,0.113214,0.12115,0.129086,0.137634,0.146183,0.1532,0.158683,0.162362,0.164184,0.164184,0.16449,0.163264,0.160829,0.155328,0.146796,0.134893,0.120247,0.102843,0.083616,0.065003,0.048824,0.036324,0.028082,0.025017,0.02563,0.029598,0.035711,0.042421,0.049744,0.055841,0.058906,0.060728,0.061648,0.060728,0.058906,0.055841,0.053405,0.05097,0.047905,0.046083,0.04455,0.044243,0.043954,0.043647,0.045163,0.047309,0.049744,0.05097,0.052792,0.054018,0.054938,0.054325,0.054325,0.055245,0.055841,0.05768,0.061648,0.071712,0.091552,0.124215,0.168765,0.22796,0.302431,0.391548,0.492245,0.595394,0.684511,0.740658,0.75074,0.710754,0.624089,0.498955,0.346368,0.184637,0.032953,-0.090632,-0.172426,-0.209347,-0.207218,-0.173346,-0.122376,-0.067438,-0.018307,0.01984,0.046083,0.060728,0.065616,0.063163,0.056454,0.049131,0.042115,0.036614,0.032357,0.029598,0.029598,0.031437,0.032646,0.034179,0.036018,0.037534,0.039373,0.041808,0.045776,0.049437,0.053405,0.057067,0.061341,0.064696,0.067131,0.068357,0.068664,0.068051,0.066842,0.066229,0.065616,0.065922,0.067438,0.071406,0.077519,0.084536,0.090632,0.09552,0.099181,0.100714,0.099488,0.096133,0.091858,0.088197,0.085762,0.085762,0.088504,0.093698,0.101617,0.111392,0.12115,0.130312,0.138554,0.144957,0.150151,0.154426,0.156861,0.157781,0.158394,0.157474,0.156861,0.157168,0.15899,0.161136,0.163571,0.165103,0.166619,0.166313,0.165103,0.162055,0.156555,0.148619,0.139167,0.128779,0.117182,0.105584,0.093987,0.084229,0.0766,0.070197,0.065922,0.063163,0.061648,0.061648,0.062874,0.065309,0.067131,0.068971,0.071099,0.071712,0.070793,0.069277,0.067131,0.064696,0.061648,0.059212,0.05768,0.058906,0.062261,0.067438,0.072938,0.078729,0.083923,0.088504,0.091552,0.0946,0.096133,0.096439,0.09552,0.09552,0.094907,0.0946,0.094294,0.092472,0.090939,0.089423,0.087584,0.086358,0.085455,0.084842,0.083923,0.084229,0.084536,0.084229,0.083923,0.083003,0.0821,0.081181,0.080261,0.079342,0.079035,0.079035,0.079955,0.080261,0.080568,0.080874,0.081181,0.081181,0.081794,0.083003,0.084229,0.086358,0.087584,0.089117,0.08881,0.088197,0.086051,0.082696,0.079648,0.077519,0.075987,0.075987,0.076906,0.078133,0.079955,0.08239,0.084842,0.086358,0.086358,0.086358,0.086051,0.085149,0.083003,0.0821,0.081181,0.080261,0.079342,0.078422,0.078133,0.078729,0.079648,0.081487,0.082696,0.08331,0.084229,0.084229,0.083923,0.08331,0.082696,0.082696,0.08331,0.083923,0.084842,0.086664,0.088197,0.090326,0.090632,0.08973,0.086358,0.082696,0.079035,0.077519,0.074761,0.072632,0.071406,0.071406,0.071712,0.072938,0.072325,0.072938,0.073552,0.074761,0.076906,0.078729,0.081181,0.084229,0.086358,0.087277,0.087277,0.087891,0.086971,0.086971,0.086051,0.085762,0.085455,0.086051,0.087584,0.08973,0.092472,0.096133,0.102843,0.111085,0.121763,0.131844,0.141909,0.15136,0.159603,0.166023,0.170281,0.1712,0.168765,0.162958,0.154426,0.144344,0.131538,0.117488,0.103149,0.089117,0.0766,0.065922,0.057373,0.05097,0.045776,0.043341,0.042421,0.042421,0.042421,0.042728,0.044856,0.047905,0.05097,0.053712,0.057067,0.060728,0.063776,0.066535,0.069584,0.071712,0.072938,0.072938,0.070503,0.065616,0.058906,0.05097,0.041808,0.032357,0.024727,0.018614,0.015872,0.015259,0.017387,0.021066,0.025017,0.029598,0.034179,0.03876,0.042728,0.047002,0.051873,0.057986,0.068051,0.08331,0.108343,0.145877,0.198363,0.266107,0.349127,0.44526,0.549005,0.649106,0.726626,0.764466,0.751046,0.687253,0.579829,0.43884,0.277704,0.11536,-0.028985,-0.14007,-0.206605,-0.230413,-0.216976,-0.180056,-0.130925,-0.079342,-0.034485,0.000307,0.024727,0.039679,0.045776,0.045776,0.042115,0.037227,0.032357,0.028389,0.02563,0.024421,0.024114,0.025017,0.026549,0.028082,0.028389,0.027776,0.027469,0.027469,0.027776,0.028695,0.029291,0.03205,0.035405,0.037534,0.040888,0.04455,0.050357,0.05768,0.06439,0.06989,0.073552,0.076293,0.078422,0.079035,0.077826,0.074471,0.072019,0.068664,0.065003,0.062874,0.060422,0.058599,0.05676,0.054938,0.054631,0.055534,0.060728,0.067131,0.075067,0.084536,0.094294,0.103762,0.111392,0.115666,0.119327,0.122989,0.125424,0.12757,0.129392,0.132134,0.135795,0.140683,0.144957,0.148312,0.151054,0.152893,0.154426,0.154119,0.15228,0.149845,0.146183,0.140683,0.130925,0.119327,0.106811,0.093085,0.078422,0.064083,0.051583,0.040888,0.03205,0.027162,0.024727,0.025017,0.027776,0.033566,0.040275,0.047002,0.053405,0.058599,0.063163,0.065003,0.064083,0.059808,0.054018,0.048211,0.042728,0.03784,0.034179,0.031437,0.03205,0.033872,0.037534,0.041502,0.044856,0.047905,0.049744,0.049744,0.048518,0.046083,0.043341,0.041502,0.040275,0.039986,0.039986,0.041808,0.043341,0.045776,0.047615,0.049131,0.049744,0.05005,0.05097,0.052179,0.053712,0.055841,0.057373,0.059212,0.060115,0.060422,0.060115,0.059502,0.05768,0.057067,0.05768,0.058599,0.058599,0.059212,0.058906,0.05768,0.055245,0.053099,0.050664,0.048824,0.047615,0.047615,0.05005,0.053099,0.056454,0.058906,0.061035,0.062567,0.062874,0.062567,0.061954,0.060115,0.058906,0.05676,0.055841,0.055841,0.057373,0.058906,0.059808,0.061648,0.06439,0.065616,0.066842,0.066535,0.065309,0.062874,0.059808,0.057373,0.056147,0.055245,0.055841,0.057373,0.058906,0.061035,0.063163,0.06439,0.06439,0.062874,0.061341,0.060115,0.059808,0.060422,0.062567,0.065003,0.067438,0.070793,0.073245,0.077213,0.079648,0.080568,0.080261,0.079035,0.077826,0.077213,0.076293,0.07568,0.075067,0.074761,0.073552,0.072938,0.071099,0.069277,0.066229,0.061954,0.05768,0.054018,0.053405,0.053405,0.055841,0.061341,0.067438,0.075987,0.083923,0.090326,0.095213,0.097053,0.097649,0.094907,0.089423,0.082696,0.074761,0.067438,0.061648,0.05676,0.053405,0.052486,0.052792,0.054325,0.057067,0.060422,0.06347,0.065922,0.067744,0.069584,0.072019,0.073245,0.073858,0.074471,0.075067,0.076906,0.077519,0.079035,0.079035,0.078729,0.077826,0.0766,0.07568,0.074761,0.073245,0.072019,0.070503,0.069277,0.067438,0.066842,0.065309,0.065003,0.065309,0.066535,0.068051,0.070503,0.072632,0.074165,0.07568,0.077826,0.079035,0.079342,0.079035,0.079035,0.079342,0.079648,0.076906,0.072938,0.069584,0.065616,0.062567,0.060115,0.057986,0.057986,0.060728,0.065922,0.072938,0.080874,0.088197,0.095213,0.099794,0.101617,0.099794,0.094294,0.085455,0.074471,0.062874,0.051277,0.042421,0.037534,0.036921,0.039373,0.044243,0.051873,0.059808,0.066842,0.072019,0.075374,0.077213,0.077519,0.0766,0.07568,0.073858,0.073245,0.072938,0.072632,0.072938,0.073245,0.073552,0.074471,0.075987,0.078133,0.0821,0.087277,0.091552,0.094294,0.096133,0.096746,0.0946,0.090632,0.085149,0.078422,0.072019,0.066535,0.062567,0.060728,0.061954,0.06439,0.068051,0.073552,0.079035,0.083923,0.087277,0.08973,0.08973,0.087277,0.084842,0.081181,0.077213,0.073552,0.070503,0.068971,0.069277,0.069277,0.070197,0.071712,0.073552,0.074471,0.074165,0.072938,0.071099,0.06989,0.067438,0.065616,0.06439,0.06347,0.06439,0.065922,0.068357,0.070793,0.073552,0.0766,0.078729,0.081487,0.084842,0.087584,0.089423,0.090632,0.091245,0.089423,0.085762,0.080568,0.073552,0.066229,0.058599,0.052179,0.048518,0.047002,0.047905,0.05005,0.054018,0.058599,0.062261,0.065309,0.067438,0.068971,0.070197,0.072325,0.077826,0.085762,0.093987,0.099794,0.102536,0.102536,0.10102,0.094907,0.085762,0.076293,0.067744,0.062261,0.061035,0.064083,0.070197,0.079342,0.089117,0.098568,0.10773,0.115666,0.123295,0.130925,0.137328,0.142829,0.14649,0.148312,0.149232,0.148619,0.144651,0.137328,0.128166,0.118408,0.106811,0.0946,0.081487,0.068971,0.058293,0.049744,0.041808,0.035711,0.03113,0.026856,0.023501,0.021662,0.020453,0.020146,0.020453,0.021662,0.023808,0.026549,0.030211,0.032953
7_0,-0.084225,-0.084527,-0.084225,-0.084225,-0.085143,-0.085143,-0.086665,-0.088187,-0.091857,-0.096737,-0.101929,-0.107414,-0.113523,-0.118403,-0.122678,-0.124815,-0.126338,-0.124815,-0.123283,-0.121458,-0.119018,-0.118403,-0.118403,-0.119925,-0.122678,-0.12542,-0.128777,-0.131832,-0.134575,-0.137327,-0.13641,-0.13397,-0.128777,-0.119925,-0.109551,-0.097654,-0.084225,-0.070493,-0.056762,-0.04425,-0.03448,-0.027161,-0.023491,-0.022573,-0.024408,-0.027766,-0.031425,-0.036618,-0.0418,-0.046075,-0.04913,-0.049734,-0.048514,-0.04547,-0.041497,-0.036315,-0.032041,-0.026848,-0.021969,-0.017996,-0.016776,-0.017391,-0.019831,-0.024106,-0.029288,-0.03448,-0.040277,-0.04425,-0.047294,-0.04913,-0.04669,-0.041497,-0.03448,-0.027766,-0.020749,-0.015869,-0.012199,-0.011594,-0.014034,-0.018309,-0.023188,-0.027463,-0.030205,-0.029903,-0.024711,-0.015556,-0.003962,0.009467,0.022897,0.033573,0.042123,0.04548,0.044563,0.040903,0.033573,0.023501,0.011605,-0.000302,-0.012512,-0.023188,-0.032958,-0.042415,-0.050965,-0.058284,-0.063779,-0.068054,-0.069878,-0.070181,-0.067741,-0.063779,-0.060724,-0.056449,-0.052789,-0.051267,-0.050349,-0.052487,-0.056449,-0.061641,-0.067741,-0.073236,-0.078428,-0.082088,-0.08483,-0.085445,-0.084527,-0.081472,-0.07751,-0.072016,-0.066521,-0.062559,-0.062246,-0.062861,-0.061026,-0.053092,-0.036315,-0.007622,0.037546,0.097665,0.166625,0.232239,0.281682,0.306403,0.30243,0.268252,0.206309,0.124211,0.033573,-0.052789,-0.12298,-0.171807,-0.196529,-0.199584,-0.187677,-0.16723,-0.144646,-0.123283,-0.106194,-0.094297,-0.086967,-0.082703,-0.079648,-0.079033,-0.078115,-0.077208,-0.075675,-0.073851,-0.072016,-0.071098,-0.070796,-0.073236,-0.075988,-0.079345,-0.083005,-0.085747,-0.0885,-0.089407,-0.090022,-0.0885,-0.085747,-0.083308,-0.080868,-0.079345,-0.077813,-0.07751,-0.07873,-0.080868,-0.085143,-0.089407,-0.094599,-0.099479,-0.104974,-0.110166,-0.113523,-0.116881,-0.118101,-0.119623,-0.12054,-0.122376,-0.1242,-0.127255,-0.130915,-0.133667,-0.136107,-0.136712,-0.134575,-0.129393,-0.121458,-0.109249,-0.094902,-0.07873,-0.062861,-0.04669,-0.031738,-0.020134,-0.012512,-0.007935,-0.005797,-0.007935,-0.012199,-0.017996,-0.023491,-0.028683,-0.032645,-0.035096,-0.035398,-0.03326,-0.030508,-0.028068,-0.026243,-0.024408,-0.023188,-0.022886,-0.023804,-0.025628,-0.027766,-0.029288,-0.029903,-0.029288,-0.028068,-0.027161,-0.025628,-0.024106,-0.022573,-0.021666,-0.019529,-0.016776,-0.014952,-0.014336,-0.013419,-0.013419,-0.014034,-0.015254,-0.016171,-0.016776,-0.014639,-0.010062,-0.00244,0.008852,0.022281,0.035711,0.048525,0.058899,0.066229,0.069889,0.071109,0.069284,0.063476,0.055855,0.04426,0.031738,0.017099,0.000918,-0.014952,-0.031425,-0.045157,-0.056147,-0.063164,-0.065301,-0.064999,-0.061026,-0.054624,-0.04791,-0.0418,-0.037535,-0.036315,-0.037535,-0.040893,-0.046075,-0.052487,-0.059806,-0.064999,-0.068658,-0.070181,-0.069274,-0.066834,-0.064081,-0.061339,-0.058586,-0.056449,-0.056147,-0.057064,-0.060724,-0.065603,-0.068658,-0.066219,-0.054927,-0.03326,0.002753,0.05402,0.116891,0.182505,0.238954,0.275582,0.286874,0.27039,0.227057,0.161444,0.0824,-0.000605,-0.075675,-0.133052,-0.169065,-0.184319,-0.182182,-0.169368,-0.149839,-0.129393,-0.110166,-0.093682,-0.080868,-0.072318,-0.066521,-0.063779,-0.062559,-0.063164,-0.064383,-0.066219,-0.069274,-0.072631,-0.075071,-0.076895,-0.078115,-0.079033,-0.079345,-0.078115,-0.076895,-0.074768,-0.072631,-0.070796,-0.069274,-0.068658,-0.068658,-0.069878,-0.070796,-0.072631,-0.073851,-0.075988,-0.077208,-0.078428,-0.079033,-0.080565,-0.083308,-0.08605,-0.089407,-0.093077,-0.096737,-0.101012,-0.104671,-0.109864,-0.114441,-0.118101,-0.12176,-0.124815,-0.12664,-0.126953,-0.1242,-0.118705,-0.110771,-0.099479,-0.08605,-0.072016,-0.056147,-0.041497,-0.028381,-0.017694,-0.008237,-0.001522,0.003055,0.00489,0.005192,0.003972,0.001533,-0.000605,-0.00366,-0.005797,-0.007622,-0.008842,-0.008842,-0.008237,-0.006704,-0.003962,-0.000605,0.003055,0.00611,0.00855,0.009467,0.008852,0.007027,0.003972,0,-0.003962,-0.007622,-0.010062,-0.010062,-0.010062,-0.008237,-0.005182,-0.00244,0.000313,0.001533,0.001533,0.000615,-0.000605,-0.00122,-0.000302,0.00245,0.008247,0.017402,0.028996,0.04303,0.057075,0.071411,0.083318,0.091868,0.096445,0.096747,0.09339,0.08606,0.076301,0.063789,0.049745,0.034793,0.021061,0.008247,-0.003045,-0.013116,-0.021353,-0.027766,-0.031425,-0.033563,-0.033865,-0.03326,-0.032645,-0.031738,-0.031738,-0.031425,-0.031123,-0.031425,-0.031123,-0.030205,-0.029288,-0.027766,-0.025024,-0.024106,-0.023188,-0.024106,-0.025024,-0.027161,-0.030205,-0.03326,-0.035096,-0.036315,-0.03814,-0.040277,-0.04058,-0.035398,-0.020446,0.00611,0.04548,0.101324,0.169076,0.241394,0.303963,0.34546,0.357367,0.338746,0.289919,0.21637,0.127266,0.035096,-0.046992,-0.109864,-0.147086,-0.161131,-0.155334,-0.137014,-0.113826,-0.091544,-0.072933,-0.059504,-0.052789,-0.050965,-0.052487,-0.054927,-0.057982,-0.060421,-0.061026,-0.059806,-0.057064,-0.052789,-0.04913,-0.045772,-0.044552,-0.045772,-0.048212,-0.051569,-0.055542,-0.059504,-0.062246,-0.063476,-0.063476,-0.061641,-0.058899,-0.054009,-0.049432,-0.046992,-0.046377,-0.048212,-0.052185,-0.058899,-0.067136,-0.077208,-0.086967,-0.095215,-0.101616,-0.106809,-0.111084,-0.113523,-0.115348,-0.117798,-0.119925,-0.122376,-0.123283,-0.12298,-0.122063,-0.119321,-0.116568,-0.110771,-0.104056,-0.094599,-0.085747,-0.075071,-0.064383,-0.052487,-0.040277,-0.029601,-0.019226,-0.010677,-0.003045,0.00123,0.004577,0.007935,0.00977,0.010687,0.009165,0.006715,0.003357,-0.000907,-0.006099,-0.011897,-0.017996,-0.023188,-0.026243,-0.027463,-0.027463,-0.025326,-0.022886,-0.018914,-0.014639,-0.010374,-0.007319,-0.00366,-0.000907,0.002137,0.003972,0.004577,0.00367,0.002753,0.000918,0,-0.00244,-0.005484,-0.008539,-0.010677,-0.010979,-0.010374,-0.007622,-0.001825,0.007027,0.019539,0.033876,0.05036,0.066531,0.081796,0.094307,0.102847,0.105902,0.104682,0.098885,0.088813,0.075383,0.059212,0.041508,0.023501,0.006412,-0.009457,-0.023188,-0.034178,-0.0418,-0.046075,-0.04791,-0.046377,-0.04303,-0.038755,-0.034178,-0.029903,-0.025326,-0.021666,-0.020134,-0.019226,-0.018914,-0.019831,-0.021051,-0.023804,-0.025326,-0.026848,-0.027463,-0.027161,-0.025931,-0.024408,-0.023491,-0.021666,-0.020446,-0.020749,-0.023491,-0.027161,-0.028068,-0.022271,-0.007622,0.020446,0.062872,0.120551,0.187989,0.255438,0.30976,0.341498,0.344553,0.317695,0.263675,0.188302,0.102847,0.018319,-0.053404,-0.104671,-0.13275,-0.138547,-0.12786,-0.108331,-0.085747,-0.066219,-0.050349,-0.039673,-0.03448,-0.032645,-0.033563,-0.03448,-0.035398,-0.0357,-0.035398,-0.033865,-0.032645,-0.032645,-0.03326,-0.035096,-0.037838,-0.04058,-0.04425,-0.047294,-0.049432,-0.050652,-0.051267,-0.051569,-0.050047,-0.048212,-0.046075,-0.04547,-0.044552,-0.043635,-0.04425,-0.046377,-0.049734,-0.053707,-0.058284,-0.062861,-0.068054,-0.072318,-0.075988,-0.079033,-0.082703,-0.086967,-0.090325,-0.094297,-0.098259,-0.102534,-0.106506,-0.109864,-0.112304,-0.112304,-0.109249,-0.104056,-0.096434,-0.08483,-0.071098,-0.055542,-0.038755,-0.021666,-0.006402,0.005808,0.014649,0.020144,0.023199,0.023501,0.021979,0.020446,0.018622,0.017704,0.017099,0.018319,0.019539,0.020759,0.021677,0.021061,0.020144,0.017704,0.014347,0.010385,0.006412,0.002753,-0.000605,-0.002742,-0.003962,-0.004264,-0.003045,-0.000907,0.002137,0.004275,0.006715,0.00855,0.010989,0.012209,0.014347,0.015869,0.017402,0.018622,0.019842,0.020759,0.021677,0.022897,0.022584,0.021979,0.021979,0.022281,0.024116,0.027776,0.033876,0.041508,0.050965,0.060432,0.070191,0.079043,0.08484,0.086978,0.085758,0.081796,0.074164,0.064394,0.053415,0.04181,0.029611,0.017704,0.005808,-0.005182,-0.016171,-0.027161,-0.036003,-0.04303,-0.048514,-0.051267,-0.052185,-0.050349,-0.04791,-0.044552,-0.041497,-0.039058,-0.037838,-0.038442,-0.039975,-0.0418,-0.044552,-0.046377,-0.047607,-0.04913,-0.050652,-0.050965,-0.050965,-0.050349,-0.051872,-0.052487,-0.054927,-0.059504,-0.064081,-0.065301,-0.059504,-0.044552,-0.015556,0.028996,0.089417,0.159306,0.226442,0.277407,0.304265,0.299991,0.266115,0.204474,0.123293,0.033876,-0.051872,-0.122678,-0.171203,-0.196226,-0.198666,-0.186154,-0.165708,-0.144344,-0.124815,-0.109249,-0.098572,-0.090325,-0.085747,-0.083923,-0.08361,-0.084527,-0.085143,-0.085747,-0.087582,-0.089407,-0.091544,-0.091544,-0.092462,-0.093077,-0.093077,-0.092462,-0.092764,-0.092462,-0.092764,-0.092764,-0.093077,-0.094297,-0.094599,-0.094599,-0.095215,-0.094599,-0.09338,-0.092462,-0.093682,-0.094902,-0.096737,-0.099177,-0.102836,-0.108331,-0.115046,-0.122376,-0.13031,-0.137629,-0.144344,-0.151059,-0.155636,-0.159911,-0.162955,-0.164175,-0.163571,-0.161433,-0.158378,-0.152883,-0.145564,-0.13641,-0.124815,-0.112606,-0.098874,-0.083923,-0.071098,-0.059202,-0.050349,-0.043635,-0.040277,-0.039673,-0.04058,-0.042415,-0.04303,-0.043635,-0.04303,-0.0418,-0.038755,-0.035096,-0.032041,-0.029903,-0.028683,-0.029288,-0.030508,-0.032645,-0.036003,-0.040277,-0.043937,-0.047294,-0.050349,-0.052185,-0.052789,-0.053707,-0.053707,-0.053092,-0.052487,-0.051267,-0.050047,-0.04791,-0.046075,-0.043937,-0.042415,-0.041195,-0.039673,-0.03936,-0.039975,-0.03936,-0.037838,-0.034783,-0.029288,-0.021969,-0.010979,0.002137,0.016484,0.030518,0.04303,0.053415,0.059514,0.062256,0.060734,0.055239,0.04548,0.033573,0.018622,0.003972,-0.010979,-0.024106,-0.035096,-0.04547,-0.053404,-0.060119,-0.064696,-0.067438,-0.068658,-0.068356,-0.067741,-0.067438,-0.067136,-0.066521,-0.066219,-0.066219,-0.066521,-0.067741,-0.068054,-0.067741,-0.065603,-0.064081,-0.061641,-0.058899,-0.055844,-0.052789,-0.050047,-0.048212,-0.046992,-0.04669,-0.04791,-0.051872,-0.058284,-0.062861,-0.061944,-0.050349,-0.026243,0.013429,0.069889,0.138557
8_0,-0.054015,-0.056155,-0.05768,-0.059205,-0.059512,-0.05982,-0.058897,-0.05859,-0.058295,-0.060422,-0.064087,-0.065612,-0.060422,-0.046993,-0.021977,0.016787,0.070802,0.134275,0.197452,0.247802,0.274662,0.27374,0.244752,0.189212,0.114745,0.02991,-0.05158,-0.11932,-0.164492,-0.186457,-0.187072,-0.173335,-0.151972,-0.128482,-0.108645,-0.09278,-0.082092,-0.075992,-0.072327,-0.071417,-0.070802,-0.07111,-0.070495,-0.069277,-0.068355,-0.06683,-0.065612,-0.064395,-0.063177,-0.061947,-0.061345,-0.061652,-0.061652,-0.061947,-0.061652,-0.06073,-0.05982,-0.057987,-0.056758,-0.05463,-0.053412,-0.051272,-0.05035,-0.04944,-0.050055,-0.050965,-0.051875,-0.054322,-0.057987,-0.062562,-0.06806,-0.073852,-0.08026,-0.08636,-0.092472,-0.097355,-0.101622,-0.105287,-0.108337,-0.11017,-0.112002,-0.113527,-0.115667,-0.117487,-0.118717,-0.11932,-0.118717,-0.115962,-0.111695,-0.103762,-0.093075,-0.080875,-0.067445,-0.052797,-0.038457,-0.025938,-0.014955,-0.005805,-0.000615,0.002743,0.003972,0.003972,0.00305,0.001218,-0.000922,-0.00214,-0.003665,-0.004575,-0.0061,-0.007022,-0.00824,-0.009458,-0.01038,-0.01129,-0.011905,-0.012212,-0.011597,-0.010072,-0.00915,-0.008855,-0.010072,-0.010687,-0.012508,-0.01434,-0.016787,-0.019223,-0.02167,-0.023195,-0.02472,-0.02472,-0.02381,-0.02258,-0.021977,-0.020452,-0.01953,-0.018005,-0.017095,-0.016173,-0.015262,-0.014955,-0.015262,-0.016173,-0.01648,-0.018005,-0.019223,-0.020748,-0.02258,-0.02381,-0.025027,-0.025027,-0.02472,-0.024105,-0.023502,-0.02258,-0.021977,-0.021977,-0.022285,-0.02258,-0.023195,-0.023502,-0.024105,-0.02381,-0.023502,-0.02258,-0.021362,-0.020748,-0.020145,-0.020452,-0.020452,-0.020748,-0.019837,-0.017698,-0.011597,-0.003665,0.007625,0.021055,0.035395,0.048518,0.060115,0.068662,0.072327,0.07111,0.065612,0.057065,0.045468,0.032345,0.017698,0.004268,-0.00824,-0.01953,-0.029295,-0.037535,-0.043635,-0.046697,-0.047915,-0.047915,-0.046697,-0.04425,-0.041507,-0.039367,-0.038753,-0.03906,-0.039675,-0.04211,-0.045172,-0.048825,-0.051875,-0.054015,-0.05554,-0.055847,-0.054937,-0.052797,-0.05035,-0.048222,-0.046697,-0.046082,-0.046697,-0.047915,-0.04944,-0.050965,-0.051875,-0.05249,-0.053708,-0.055847,-0.059205,-0.058897,-0.050657,-0.03296,-0.00305,0.04211,0.100712,0.166927,0.230707,0.27679,0.297845,0.289605,0.25207,0.189212,0.107722,0.019837,-0.06287,-0.127867,-0.170285,-0.187995,-0.184022,-0.165095,-0.13885,-0.110477,-0.085142,-0.064395,-0.049132,-0.039675,-0.034792,-0.033575,-0.034485,-0.037228,-0.0412,-0.044865,-0.04853,-0.05158,-0.053105,-0.054015,-0.054015,-0.053412,-0.052182,-0.051272,-0.05035,-0.049132,-0.048222,-0.047607,-0.047607,-0.047915,-0.0473,-0.046697,-0.045468,-0.043943,-0.04211,-0.0412,-0.040585,-0.039982,-0.041507,-0.042725,-0.04639,-0.05035,-0.05982,-0.077825,-0.103147,-0.135197,-0.171207,-0.211177,-0.252082,-0.291745,-0.325627,-0.350347,-0.364995,-0.371095,-0.369262,-0.36224,-0.352475,-0.340582,-0.327755,-0.31403,-0.299382,-0.28321,-0.266422,-0.248417,-0.229797,-0.211792,-0.194095,-0.17914,-0.16571,-0.155637,-0.148012,-0.142822,-0.140682,-0.139772,-0.14008,-0.141297,-0.14313,-0.144655,-0.145872,-0.146487,-0.146487,-0.145872,-0.144655,-0.143745,-0.14313,-0.142515,-0.142207,-0.14313,-0.14313,-0.142822,-0.14313,-0.142822,-0.141297,-0.14008,-0.138555,-0.13703,-0.135505,-0.134582,-0.133365,-0.133057,-0.13184,-0.130917,-0.130315,-0.129085,-0.127867,-0.127265,-0.126957,-0.126342,-0.126342,-0.125125,-0.125125,-0.124817,-0.122985,-0.121767,-0.119025,-0.11627,-0.113835,-0.11108,-0.108337,-0.106197,-0.10407,-0.103455,-0.102545,-0.102237,-0.10102,-0.101315,-0.100405,-0.09979,-0.098572,-0.097047,-0.095215,-0.093382,-0.090947,-0.088192,-0.08454,-0.08026,-0.0763,-0.07202,-0.068355,-0.065612,-0.065305,-0.066535,-0.069585,-0.072635,-0.073238,-0.071712,-0.066227,-0.055847,-0.041815,-0.02563,-0.007933,0.007625,0.020748,0.028077,0.030513,0.027463,0.02044,0.008855,-0.00519,-0.020748,-0.03601,-0.050055,-0.061947,-0.07202,-0.079042,-0.084232,-0.08759,-0.089115,-0.089422,-0.09064,-0.091857,-0.093997,-0.096432,-0.099187,-0.100712,-0.101315,-0.101315,-0.09979,-0.097662,-0.095522,-0.093075,-0.090947,-0.090332,-0.090025,-0.09064,-0.092165,-0.092472,-0.093075,-0.093075,-0.091857,-0.090332,-0.087897,-0.085757,-0.083925,-0.082092,-0.082092,-0.084232,-0.086667,-0.086975,-0.079042,-0.061947,-0.031127,0.015558,0.075992,0.145872,0.211177,0.258477,0.279237,0.270997,0.23163,0.166017,0.081785,-0.009458,-0.094907,-0.162967,-0.206295,-0.2243,-0.219417,-0.200195,-0.172732,-0.142822,-0.115962,-0.093997,-0.07812,-0.067445,-0.061947,-0.060422,-0.061345,-0.063473,-0.06592,-0.068355,-0.069277,-0.068662,-0.067445,-0.064395,-0.061037,-0.057065,-0.053708,-0.050657,-0.047607,-0.046082,-0.044557,-0.044865,-0.044557,-0.045468,-0.046697,-0.047607,-0.04853,-0.049747,-0.050965,-0.050055,-0.04944,-0.048222,-0.046082,-0.044557,-0.04334,-0.042725,-0.042725,-0.043943,-0.046697,-0.050657,-0.055233,-0.060115,-0.065305,-0.070802,-0.0763,-0.081785,-0.087282,-0.091857,-0.097047,-0.101622,-0.10498,-0.107722,-0.10803,-0.10498,-0.099187,-0.089422,-0.076902,-0.061947,-0.045172,-0.02777,-0.011597,0.003357,0.01434,0.02258,0.027463,0.029602,0.028988,0.026245,0.023798,0.020748,0.01862,0.017698,0.016787,0.016787,0.01739,0.018005,0.018915,0.019837,0.020145,0.019837,0.01862,0.01862,0.017698,0.018005,0.018005,0.01739,0.017095,0.017095,0.017095,0.016787,0.01648,0.016173,0.014955,0.014648,0.013737,0.0122,0.011597,0.01038,0.009765,0.008855,0.008547,0.00824,0.008547,0.009458,0.00915,0.009765,0.009765,0.008855,0.007625,0.0061,0.00519,0.003665,0.002743,0.001832,0.001832,0.001832,0.00214,0.002743,0.003357,0.003972,0.004882,0.0061,0.007625,0.008547,0.009458,0.01038,0.01038,0.01129,0.010983,0.010675,0.009458,0.008855,0.007933,0.006715,0.0061,0.005793,0.007318,0.010675,0.017095,0.02686,0.03906,0.053708,0.06897,0.083003,0.095215,0.10284,0.10498,0.103455,0.097047,0.086667,0.07416,0.059205,0.043032,0.02868,0.014955,0.003357,-0.006715,-0.015262,-0.021362,-0.02563,-0.02777,-0.028385,-0.028988,-0.028692,-0.028077,-0.02777,-0.028077,-0.02777,-0.029295,-0.030217,-0.03205,-0.033575,-0.03601,-0.03815,-0.040585,-0.043032,-0.043943,-0.044557,-0.044557,-0.044557,-0.043635,-0.042725,-0.041507,-0.0412,-0.041815,-0.042417,-0.04425,-0.045468,-0.046697,-0.049747,-0.053105,-0.054015,-0.0473,-0.030217,-0.000615,0.043635,0.102237,0.169977,0.236205,0.28808,0.31494,0.31189,0.27802,0.216982,0.13489,0.042725,-0.046697,-0.122075,-0.174257,-0.202027,-0.206,-0.192877,-0.169375,-0.14313,-0.117192,-0.09583,-0.079042,-0.06897,-0.063177,-0.061947,-0.06378,-0.06683,-0.070802,-0.074775,-0.077517,-0.079952,-0.080567,-0.079657,-0.078735,-0.076595,-0.074467,-0.073545,-0.072635,-0.072327,-0.072327,-0.072942,-0.073852,-0.075992,-0.077825,-0.080567,-0.083015,-0.084835,-0.086667,-0.087897,-0.088807,-0.089115,-0.089422,-0.09064,-0.09064,-0.09278,-0.095522,-0.09888,-0.103147,-0.10712,-0.112605,-0.116885,-0.121767,-0.126342,-0.131532,-0.1358,-0.141912,-0.147705,-0.152895,-0.158995,-0.165095,-0.169682,-0.171207,-0.169375,-0.163877,-0.15533,-0.143745,-0.129392,-0.112002,-0.093997,-0.07721,-0.061345,-0.048222,-0.037535,-0.02991,-0.02563,-0.02258,-0.022285,-0.023502,-0.025938,-0.028385,-0.03082,-0.032652,-0.034792,-0.035407,-0.035703,-0.035407,-0.0351,-0.034485,-0.0351,-0.03601,-0.037228,-0.038753,-0.040585,-0.041815,-0.043635,-0.044557,-0.044865,-0.045172,-0.045775,-0.045468,-0.046082,-0.046082,-0.04639,-0.046697,-0.04639,-0.0473,-0.047915,-0.04853,-0.049132,-0.050055,-0.050657,-0.051272,-0.05158,-0.05158,-0.050965,-0.050657,-0.050965,-0.050965,-0.051272,-0.051272,-0.050657,-0.04944,-0.04944,-0.04853,-0.0473,-0.045468,-0.043943,-0.043032,-0.042417,-0.041507,-0.0412,-0.0412,-0.040892,-0.041815,-0.042725,-0.044865,-0.04639,-0.048222,-0.049747,-0.050657,-0.05158,-0.051272,-0.050055,-0.048222,-0.046697,-0.04425,-0.04334,-0.041815,-0.040585,-0.040585,-0.04029,-0.04029,-0.040892,-0.041507,-0.042417,-0.040892,-0.038457,-0.032652,-0.024105,-0.012508,0.001525,0.016787,0.031435,0.04425,0.053708,0.058897,0.058283,0.054015,0.045468,0.0351,0.022887,0.01038,-0.001525,-0.01343,-0.02381,-0.033267,-0.041507,-0.047915,-0.053105,-0.056462,-0.058295,-0.05859,-0.058295,-0.056758,-0.056462,-0.056462,-0.057065,-0.05768,-0.05859,-0.05982,-0.061037,-0.062255,-0.063177,-0.063177,-0.063177,-0.062562,-0.062562,-0.061947,-0.061947,-0.061345,-0.061037,-0.060422,-0.05982,-0.05859,-0.057987,-0.057372,-0.057065,-0.056462,-0.055847,-0.05859,-0.063177,-0.064998,-0.060422,-0.045172,-0.018005,0.025323,0.082707,0.154727,0.223082,0.278622,0.309147,0.310057,0.279237,0.2182,0.139465,0.045775,-0.042417,-0.117487,-0.168452,-0.194402,-0.197145,-0.182805,-0.158392,-0.131225,-0.105902,-0.083925,-0.06806,-0.056155,-0.048825,-0.044865,-0.042725,-0.043032,-0.04425,-0.045468,-0.046993,-0.04853,-0.04853,-0.04853,-0.046697,-0.045468,-0.04425,-0.04334,-0.043635,-0.044557,-0.044865,-0.045775,-0.04639,-0.046082,-0.045468,-0.043943,-0.042417,-0.040585,-0.039675,-0.04029,-0.04211,-0.045172,-0.047607,-0.049747,-0.052182,-0.05463,-0.056758,-0.05982,-0.061652,-0.064998,-0.06988,-0.075377,-0.080875,-0.086667,-0.093382,-0.099187,-0.104672,-0.109555,-0.113835,-0.11841,-0.121767,-0.124817,-0.126957,-0.12665,-0.123907,-0.117487,-0.108645,-0.09583,-0.081182,-0.06378,-0.0473,-0.02991,-0.015262,-0.001525,0.008855,0.01648,0.019837,0.020748,0.019837,0.01739,0.014955,0.0122,0.01038,0.008855,0.007933,0.00915,0.009458,0.010675,0.011905,0.013122,0.013122,0.013122,0.0122,0.010675,0.008547,0.006408,0.004268,0.001832,0.000615,0,0,0.00091,0.002743,0.004882,0.005793,0.006715,0.007318,0.007318
9_0,-0.006399,0.040293,0.061344,0.046692,0.041197,0.028377,0.039969,0.021676,-0.004266,-0.034798,-0.042727,-0.054923,-0.085153,-0.076901,-0.076901,-0.090949,-0.076297,-0.083322,-0.101615,-0.080865,-0.071104,-0.073862,-0.06561,-0.080262,-0.082697,-0.066537,-0.048825,-0.057379,-0.094914,-0.07843,-0.072031,-0.066213,-0.080865,-0.080262,-0.078129,-0.095517,-0.098577,-0.075069,-0.06074,-0.072031,-0.094289,-0.088816,-0.080865,-0.066838,-0.04486,-0.04792,-0.056754,-0.099482,-0.101938,-0.075996,-0.075371,-0.06714,-0.070199,-0.065007,-0.064382,-0.075371,-0.070199,-0.074164,-0.065007,-0.047618,-0.066213,-0.062249,-0.058284,-0.098878,-0.083925,-0.057077,-0.047618,-0.047295,-0.042727,-0.047618,-0.056453,-0.053716,-0.051885,-0.074164,-0.077827,-0.086058,-0.086984,-0.090023,-0.103446,-0.079659,-0.051583,-0.040896,-0.043632,-0.068971,-0.089721,-0.06867,-0.044257,-0.052186,-0.058586,-0.055548,-0.04792,-0.062249,-0.077827,-0.055548,-0.038138,-0.000302,0.048523,0.038138,0.036931,0.046692,0.05126,0.046692,0.054319,0.061042,0.064705,0.043955,0.027472,0.026546,0.001228,-0.039064,-0.092781,-0.101011,-0.094289,-0.107734,-0.101938,-0.08636,-0.070501,-0.069575,-0.072936,-0.062572,-0.073539,-0.092479,-0.081167,-0.075996,-0.090023,-0.125424,-0.122989,-0.08149,-0.087588,-0.121459,-0.117495,-0.101615,-0.093686,-0.107432,-0.110169,-0.080865,-0.071708,-0.098275,-0.09765,-0.105278,-0.140679,-0.134581,-0.090324,-0.015255,0.081792,0.189202,0.321651,0.509647,0.722658,0.843816,0.752264,0.335699,-0.174874,-0.332941,-0.253304,-0.166018,-0.135185,-0.124519,-0.126652,-0.125424,-0.123291,-0.126027,-0.119628,-0.114133,-0.112302,-0.108639,-0.107734,-0.102843,-0.097952,-0.111074,-0.103446,-0.097348,-0.103446,-0.109867,-0.06867,-0.080564,-0.118098,-0.096444,-0.074164,-0.076599,-0.082697,-0.068971,-0.064705,-0.066838,-0.066213,-0.089419,-0.089721,-0.079034,-0.076297,-0.074767,-0.074164,-0.067743,-0.066838,-0.068045,-0.046692,-0.03204,-0.029907,-0.025016,-0.001831,-0.015557,-0.082697,-0.087889,-0.053415,-0.039064,-0.044559,-0.025339,-0.010062,0.005494,-0.002736,-0.018013,-0.010687,-0.014652,-0.024111,-0.007929,0.017087,0.008856,-0.005796,0.006098,0.009761,-0.009459,-0.012519,0.023809,0.059814,0.046089,0.027472,-0.004568,-0.006098,0.010386,0.006098,-0.018315,-0.021051,-0.044257,-0.06074,-0.066213,-0.06074,-0.040293,-0.017388,-0.024714,-0.066213,-0.119628,-0.116891,-0.089419,-0.071104,-0.074164,-0.061645,-0.054923,-0.069273,-0.055849,-0.055548,-0.062572,-0.062572,-0.077525,-0.07843,-0.088816,-0.074164,-0.066838,-0.082093,-0.074466,-0.054319,-0.063779,-0.085455,-0.090023,-0.082998,-0.082395,-0.056453,-0.031135,-0.024714,-0.064705,-0.070501,-0.061947,-0.04486,-0.029907,-0.027472,-0.08636,-0.104674,-0.06561,-0.06867,-0.08149,-0.081167,-0.091552,-0.073238,-0.063175,-0.060417,-0.066537,-0.052186,-0.03051,-0.023508,-0.078732,-0.082093,-0.065007,-0.06561,-0.06867,-0.063779,-0.061344,-0.026244,-0.031437,-0.061344,-0.055548,-0.03663,-0.022883,-0.044257,-0.068971,-0.052186,-0.016785,-0.006399,0.00306,0.016483,0.014953,-0.072936,-0.106808,-0.067743,-0.037535,-0.037535,-0.047618,-0.068045,-0.073539,-0.072634,-0.052488,-0.048523,-0.042727,-0.03663,-0.051583,-0.048222,-0.052186,-0.059814,-0.061947,-0.046692,-0.026847,0.006098,-0.007929,-0.025339,0.012519,0.056453,0.062249,0.059814,0.076599,0.094612,0.09918,0.086661,0.054018,0.041499,0.042426,0.030812,-0.01588,-0.05126,-0.059211,-0.053716,-0.06408,-0.064382,-0.066838,-0.083925,-0.061042,-0.064382,-0.07996,-0.049127,-0.054923,-0.078129,-0.093686,-0.088493,-0.074466,-0.054923,-0.04639,-0.057982,-0.061344,-0.057982,-0.065308,-0.060417,-0.07996,-0.084226,-0.032967,-0.048523,-0.076297,-0.069876,-0.088191,-0.125122,-0.137339,-0.141907,-0.099482,0.032643,0.144967,0.273752,0.486764,0.751337,0.911861,0.870965,0.600596,0.109242,-0.239557,-0.240484,-0.147402,-0.079335,-0.066537,-0.075996,-0.104373,-0.091251,-0.077202,-0.086058,-0.09765,-0.094612,-0.080564,-0.04792,-0.055246,-0.104373,-0.112,-0.092479,-0.077827,-0.077827,-0.082395,-0.089721,-0.073862,-0.066537,-0.069273,-0.048222,-0.036306,-0.053716,-0.062249,-0.041801,-0.033268,-0.045162,-0.042426,-0.051583,-0.065308,-0.058909,-0.063477,-0.046994,-0.031135,-0.063477,-0.047618,-0.018013,-0.027774,-0.043632,-0.048825,-0.051583,-0.061645,-0.050657,-0.034173,-0.051583,-0.029304,-0.007929,-0.026546,-0.0351,-0.01769,-0.003361,0.005193,-0.002435,0.005494,0.018918,0.010989,-0.005796,0.002133,0.018616,0.027774,0.04486,0.021676,-0.032342,-0.050053,-0.03204,0.011291,0.06714,0.076599,0.028679,0.037233,0.06714,0.031437,-0.024111,-0.024714,-0.014953,-0.019845,-0.031135,-0.041197,-0.037535,-0.024714,-0.010687,-0.021051,-0.038138,-0.023508,-0.01769,-0.036306,-0.077827,-0.101011,-0.098878,-0.067743,-0.041801,-0.036931,-0.061947,-0.058284,-0.051583,-0.068971,-0.082998,-0.073862,-0.041801,-0.012519,-0.031437,-0.075069,-0.108941,-0.086058,-0.060116,-0.06867,-0.061645,-0.027472,-0.024111,-0.062572,-0.041197,-0.040896,-0.059814,-0.064382,-0.06867,-0.080564,-0.073539,-0.075996,-0.065007,-0.022581,-0.023809,-0.057681,-0.066838,-0.020146,-0.014049,-0.051583,-0.090949,-0.076599,-0.06561,-0.069575,-0.067743,-0.059814,-0.054018,-0.050958,-0.043029,-0.044257,-0.029907,-0.016785,0,-0.01769,-0.044257,-0.074164,-0.075996,-0.057077,-0.067442,-0.072333,-0.044559,-0.030209,-0.055246,-0.071104,-0.057982,-0.043029,-0.056151,-0.055246,-0.044257,-0.01922,-0.031135,-0.054621,-0.04486,-0.035401,-0.064382,-0.061344,-0.029907,-0.024413,-0.067442,-0.066537,-0.034475,-0.044257,-0.038138,-0.010989,-0.046692,-0.064382,-0.026546,-0.013725,0.002435,0.018315,0.018616,0.026546,0.029907,0.029605,0.036005,0.050657,0.065007,0.094612,0.093686,0.050657,-0.013122,-0.035401,-0.069273,-0.093686,-0.101313,-0.100408,-0.082093,-0.096444,-0.095215,-0.062572,-0.057982,-0.063477,-0.074164,-0.070803,-0.085455,-0.094289,-0.076297,-0.06408,-0.06074,-0.080564,-0.094914,-0.083623,-0.08636,-0.077827,-0.062874,-0.056151,-0.079335,-0.06867,-0.049127,-0.072333,-0.115965,-0.120231,-0.132147,-0.175176,-0.198058,-0.133353,0.001228,0.130918,0.283513,0.503549,0.757758,0.903328,0.867,0.592645,0.159597,-0.181575,-0.227965,-0.169681,-0.130315,-0.114133,-0.09918,-0.097952,-0.124519,-0.131522,-0.11506,-0.098577,-0.108337,-0.115965,-0.090324,-0.067442,-0.116568,-0.141907,-0.130315,-0.118723,-0.114133,-0.105278,-0.090949,-0.095819,-0.097047,-0.100408,-0.109264,-0.11993,-0.12969,-0.100106,-0.076599,-0.070199,-0.072031,-0.073862,-0.085153,-0.101615,-0.101615,-0.097348,-0.104674,-0.094914,-0.067442,-0.054018,-0.063175,-0.09918,-0.104373,-0.074767,-0.057077,-0.080865,-0.09612,-0.062249,-0.035401,-0.06408,-0.088191,-0.063779,-0.061344,-0.061947,-0.047295,-0.040594,-0.037836,-0.035703,-0.041801,-0.023809,0.000302,-0.018013,-0.029002,-0.03204,-0.046089,-0.043632,-0.062874,-0.055246,-0.028377,0.004568,-0.011894,-0.009459,-0.005193,0.015255,0.030812,0.021676,0.001228,-0.037535,-0.057077,-0.056453,-0.065007,-0.063175,-0.074767,-0.089721,-0.092781,-0.08483,-0.082093,-0.071104,-0.071406,-0.069876,-0.093987,-0.112905,-0.105278,-0.08483,-0.072031,-0.100408,-0.109264,-0.093987,-0.089721,-0.083925,-0.080262,-0.082998,-0.094289,-0.116891,-0.112302,-0.105903,-0.099482,-0.08149,-0.061947,-0.081792,-0.083623,-0.089721,-0.090324,-0.075996,-0.06561,-0.074164,-0.095517,-0.095819,-0.091251,-0.100408,-0.097348,-0.072634,-0.073238,-0.100106,-0.09612,-0.075371,-0.060417,-0.065308,-0.081167,-0.08149,-0.081167,-0.077525,-0.077202,-0.072031,-0.060417,-0.073862,-0.079659,-0.077202,-0.085756,-0.082697,-0.068045,-0.065007,-0.062249,-0.059512,-0.081167,-0.086984,-0.075694,-0.071104,-0.080564,-0.080865,-0.072634,-0.081167,-0.073539,-0.054018,-0.054923,-0.060116,-0.064382,-0.065912,-0.058284,-0.047295,-0.034475,-0.014953,-0.031738,-0.082395,-0.093384,-0.085455,-0.091552,-0.075996,-0.058586,-0.065007,-0.06867,-0.055246,-0.049127,-0.054923,-0.06561,-0.076599,-0.063477,-0.067743,-0.086058,-0.090647,-0.06561,-0.049127,-0.03357,-0.029605,-0.028075,-0.042727,-0.06074,-0.044559,-0.044257,-0.041499,-0.056754,-0.072031,-0.074164,-0.079034,-0.071104,-0.072031,-0.072936,-0.06867,-0.066537,-0.06408,-0.05126,-0.048222,-0.048523,-0.066537,-0.04792,-0.04792,-0.046994,-0.060116,-0.059512,-0.061947,-0.058909,-0.050657,-0.023809,-0.012519,-0.055849,-0.108337,-0.092781,-0.06867,-0.061947,-0.080262,-0.079659,-0.048825,-0.032342,-0.06408,-0.07996,-0.066213,-0.054923,-0.056151,-0.061042,-0.06561,-0.064382,-0.061344,-0.055246,-0.057077,-0.063175,-0.053716,-0.040293,-0.050355,-0.05279,-0.062874,-0.077525,-0.068368,-0.043029,-0.029304,-0.046692,-0.067743,-0.056151,-0.080865,-0.099482,-0.068045,-0.046692,-0.056453,-0.085756,-0.075371,-0.068971,-0.064382,-0.059211,-0.055849,-0.049127,-0.048523,-0.068368,-0.051885,-0.05279,-0.054018,-0.05126,-0.03663,-0.028377,-0.03663,-0.055849,-0.04486,-0.04486,-0.072333,-0.065308,-0.04639,-0.050355,-0.063175,-0.057077,-0.056754,-0.06074,-0.052488,-0.039969,-0.025016,-0.054018,-0.094914,-0.093082,-0.083925,-0.068045,-0.064382,-0.06867,-0.068368,-0.056754,-0.056453,-0.066838,-0.063477,-0.056151,-0.054018,-0.042426,-0.041801,-0.048222,-0.046089,-0.049428,-0.036005,-0.042124,-0.051885,-0.064705,-0.048222,-0.026847,-0.025942,-0.019845,-0.051583,-0.063779,-0.0351,-0.027171,-0.047618,-0.072333,-0.066838,-0.055246,-0.050355,-0.049127,-0.056453,-0.053415,-0.06561,-0.057077,-0.026546,-0.005494,-0.010989,-0.036931,-0.027774,-0.00306,-0.031437,-0.065912,-0.062874,-0.055246,-0.070199,-0.078129,-0.054018,-0.045464,-0.043029,-0.057379,-0.076297,-0.067442,-0.058909,-0.04792,-0.049127,-0.042124,-0.005494,0.01435,0.036306,0.071406,0.005193,-0.100408,-0.101313,-0.086058,-0.082093,-0.074466,-0.045162,-0.010386,-0.010386,-0.042124,-0.051885,-0.018315,-0.008856,-0.029002,-0.042426,-0.029605,-0.028075,-0.022883,-0.007326,0.002736,-0.036931,-0.057379,-0.03051,-0.032342,0.004266,0.037836,0.040293
10_0,-0.105585,-0.104676,-0.105288,-0.108645,-0.11291,-0.115042,-0.110165,-0.094904,-0.063158,-0.009457,0.070501,0.175474,0.301512,0.437323,0.566717,0.667425,0.722962,0.724798,0.67169,0.569462,0.428478,0.265817,0.101635,-0.043335,-0.154409,-0.224614,-0.255433,-0.253893,-0.231011,-0.198672,-0.166017,-0.13976,-0.12359,-0.118102,-0.120531,-0.127855,-0.137628,-0.1474,-0.154409,-0.158693,-0.159305,-0.156857,-0.152277,-0.146473,-0.140687,-0.134883,-0.130618,-0.127559,-0.125426,-0.124202,-0.12359,-0.124202,-0.124499,-0.123906,-0.122682,-0.122367,-0.122367,-0.121755,-0.121458,-0.120846,-0.119622,-0.118714,-0.116878,-0.11443,-0.111686,-0.108033,-0.104676,-0.102525,-0.100393,-0.100393,-0.100096,-0.100393,-0.101617,-0.103453,-0.105288,-0.106197,-0.1059,-0.104064,-0.101617,-0.100096,-0.097037,-0.093068,-0.088803,-0.08452,-0.081776,-0.079643,-0.078122,-0.077807,-0.077511,-0.077807,-0.077511,-0.076287,-0.074154,-0.070483,-0.065921,-0.061026,-0.056761,-0.053089,-0.051884,-0.053404,-0.056761,-0.061026,-0.067442,-0.07599,-0.086059,-0.09674,-0.108033,-0.118102,-0.127855,-0.137331,-0.147085,-0.155948,-0.163866,-0.169374,-0.172415,-0.173954,-0.174862,-0.174862,-0.173342,-0.170282,-0.167834,-0.164478,-0.161437,-0.157766,-0.155021,-0.152592,-0.150144,-0.14892,-0.148624,-0.148624,-0.149217,-0.150144,-0.150756,-0.149532,-0.148624,-0.147697,-0.145861,-0.143728,-0.142504,-0.141299,-0.140687,-0.141299,-0.142208,-0.143432,-0.143728,-0.142208,-0.13976,-0.137628,-0.137331,-0.136404,-0.136107,-0.135495,-0.136107,-0.137016,-0.137628,-0.137331,-0.136404,-0.133975,-0.130303,-0.127855,-0.127262,-0.128171,-0.129691,-0.131824,-0.134587,-0.136107,-0.137016,-0.136107,-0.134271,-0.131527,-0.128783,-0.124814,-0.122367,-0.120846,-0.121143,-0.12207,-0.12359,-0.125723,-0.127855,-0.130006,-0.130915,-0.130915,-0.129394,-0.128171,-0.126038,-0.12359,-0.121458,-0.119325,-0.117786,-0.117174,-0.116581,-0.116581,-0.117174,-0.116266,-0.115042,-0.115042,-0.116266,-0.117174,-0.118714,-0.119937,-0.121143,-0.122978,-0.122367,-0.120531,-0.118398,-0.115042,-0.112001,-0.10985,-0.108329,-0.107717,-0.108941,-0.111074,-0.113521,-0.116266,-0.118102,-0.119622,-0.119937,-0.117174,-0.113818,-0.109257,-0.105288,-0.101005,-0.097648,-0.094292,-0.09216,-0.090936,-0.090324,-0.091251,-0.092772,-0.092772,-0.092456,-0.090324,-0.086356,-0.081164,-0.074766,-0.068054,-0.059802,-0.051569,-0.04302,-0.035696,-0.030207,-0.027462,-0.029298,-0.032655,-0.038755,-0.047304,-0.057373,-0.067442,-0.077511,-0.086671,-0.093068,-0.09826,-0.102841,-0.107106,-0.110165,-0.113206,-0.117786,-0.12359,-0.127855,-0.132436,-0.136404,-0.138536,-0.139463,-0.139463,-0.138536,-0.137016,-0.133975,-0.131527,-0.129394,-0.127855,-0.126947,-0.126038,-0.125426,-0.125426,-0.126335,-0.127262,-0.128783,-0.130618,-0.132139,-0.133363,-0.133975,-0.132751,-0.131212,-0.129079,-0.127559,-0.124499,-0.119937,-0.115969,-0.113206,-0.110777,-0.111074,-0.113521,-0.116581,-0.119325,-0.11749,-0.107106,-0.082703,-0.039664,0.02839,0.121458,0.23713,0.368657,0.501408,0.613706,0.687878,0.710149,0.677791,0.59418,0.467845,0.312805,0.148012,-0.006101,-0.131824,-0.218198,-0.264278,-0.274959,-0.258474,-0.226746,-0.19042,-0.157469,-0.132139,-0.115969,-0.108941,-0.108033,-0.111686,-0.118102,-0.124814,-0.131527,-0.137016,-0.141299,-0.143432,-0.144952,-0.145564,-0.146176,-0.144952,-0.143728,-0.140687,-0.137943,-0.134587,-0.131527,-0.126947,-0.12359,-0.120846,-0.116878,-0.11443,-0.11291,-0.11291,-0.112298,-0.111074,-0.109257,-0.107421,-0.106494,-0.105585,-0.103749,-0.102229,-0.100708,-0.097964,-0.094292,-0.091251,-0.086968,-0.082091,-0.076287,-0.071095,-0.065606,-0.061953,-0.059505,-0.058597,-0.059208,-0.060117,-0.06225,-0.063473,-0.065309,-0.066514,-0.066514,-0.066514,-0.065606,-0.063158,-0.058893,-0.054628,-0.050345,-0.045468,-0.0415,-0.036011,-0.031727,-0.029298,-0.030207,-0.032655,-0.037531,-0.044244,-0.053404,-0.063473,-0.075675,-0.088803,-0.102229,-0.114745,-0.125426,-0.134587,-0.141911,-0.146788,-0.150144,-0.150441,-0.14892,-0.145861,-0.141299,-0.136719,-0.133659,-0.132139,-0.130618,-0.129691,-0.130303,-0.130006,-0.130618,-0.132139,-0.132139,-0.131527,-0.130915,-0.130618,-0.130915,-0.131824,-0.131824,-0.131527,-0.130618,-0.130618,-0.129394,-0.127559,-0.125426,-0.123906,-0.122682,-0.121755,-0.120531,-0.119937,-0.119325,-0.119622,-0.119325,-0.119937,-0.119937,-0.120234,-0.120531,-0.119622,-0.119325,-0.11749,-0.114745,-0.112001,-0.108941,-0.106197,-0.103137,-0.10132,-0.100708,-0.10132,-0.101005,-0.100393,-0.099781,-0.09826,-0.096425,-0.094904,-0.092772,-0.090936,-0.090027,-0.088803,-0.088488,-0.088803,-0.090027,-0.089712,-0.090027,-0.090324,-0.090639,-0.089415,-0.088803,-0.088488,-0.088803,-0.089415,-0.090027,-0.091251,-0.092456,-0.093384,-0.093995,-0.094904,-0.095516,-0.095516,-0.096128,-0.096425,-0.097964,-0.09826,-0.098872,-0.098872,-0.097648,-0.097037,-0.094292,-0.090936,-0.087895,-0.084835,-0.081479,-0.078419,-0.076602,-0.074451,-0.071707,-0.068054,-0.064382,-0.059505,-0.053089,-0.044559,-0.035696,-0.025942,-0.01617,-0.007936,-0.001521,0.000927,0.000315,-0.003968,-0.01159,-0.021658,-0.033878,-0.046692,-0.059208,-0.071095,-0.082387,-0.091548,-0.099169,-0.1059,-0.110777,-0.113206,-0.11443,-0.113818,-0.112001,-0.10985,-0.106494,-0.104064,-0.102525,-0.102841,-0.104064,-0.106197,-0.108645,-0.111686,-0.11443,-0.11443,-0.11443,-0.113818,-0.112613,-0.112001,-0.111389,-0.111074,-0.111389,-0.112613,-0.114133,-0.115042,-0.115357,-0.114745,-0.112613,-0.109257,-0.104973,-0.099169,-0.093068,-0.088803,-0.085132,-0.082703,-0.080867,-0.081164,-0.084835,-0.091844,-0.100393,-0.1059,-0.103137,-0.087283,-0.05524,-0.001521,0.078438,0.184338,0.310376,0.445871,0.571594,0.666517,0.714729,0.710149,0.652164,0.546264,0.403444,0.240487,0.078122,-0.06377,-0.171191,-0.238948,-0.267634,-0.263981,-0.23956,-0.205069,-0.16967,-0.13976,-0.118714,-0.108033,-0.105585,-0.109257,-0.115654,-0.123294,-0.130915,-0.136719,-0.13976,-0.139463,-0.136404,-0.132751,-0.129691,-0.127559,-0.126335,-0.126038,-0.126038,-0.12665,-0.127262,-0.127262,-0.126947,-0.124202,-0.120846,-0.116878,-0.114133,-0.11291,-0.112298,-0.112298,-0.112001,-0.112001,-0.111074,-0.109257,-0.105288,-0.100393,-0.095516,-0.090639,-0.085447,-0.081479,-0.079031,-0.079031,-0.079031,-0.080255,-0.080867,-0.080867,-0.08057,-0.078734,-0.075675,-0.072022,-0.067126,-0.062565,-0.058597,-0.054313,-0.05066,-0.048824,-0.046988,-0.046692,-0.046692,-0.046692,-0.045765,-0.044244,-0.041796,-0.040276,-0.038143,-0.035696,-0.033878,-0.033266,-0.033878,-0.03692,-0.0415,-0.049121,-0.059505,-0.071095,-0.08452,-0.099484,-0.113206,-0.126038,-0.137331,-0.144952,-0.149217,-0.149217,-0.147085,-0.143116,-0.13824,-0.133659,-0.129394,-0.126335,-0.124814,-0.124814,-0.126038,-0.128171,-0.130303,-0.131824,-0.133363,-0.134587,-0.134883,-0.133659,-0.132751,-0.132139,-0.130915,-0.128467,-0.126038,-0.125426,-0.124499,-0.124202,-0.123906,-0.12359,-0.124202,-0.123906,-0.124814,-0.124814,-0.124202,-0.123294,-0.122367,-0.121755,-0.120234,-0.119937,-0.11901,-0.11901,-0.119937,-0.120846,-0.122682,-0.124814,-0.125723,-0.125111,-0.124814,-0.12359,-0.122367,-0.119937,-0.117174,-0.113818,-0.112298,-0.112001,-0.112613,-0.113206,-0.113818,-0.11443,-0.114133,-0.115042,-0.115042,-0.113521,-0.111686,-0.108941,-0.106197,-0.103749,-0.102229,-0.100393,-0.098576,-0.097352,-0.09674,-0.095516,-0.094904,-0.094292,-0.094607,-0.094904,-0.095813,-0.09674,-0.097648,-0.099781,-0.101005,-0.102229,-0.103137,-0.103453,-0.102841,-0.103453,-0.104064,-0.104973,-0.104973,-0.104676,-0.104361,-0.104064,-0.102841,-0.10132,-0.099169,-0.097352,-0.094904,-0.092456,-0.090936,-0.089415,-0.088488,-0.088191,-0.087895,-0.088191,-0.088803,-0.088803,-0.089415,-0.090027,-0.090639,-0.090324,-0.0891,-0.088488,-0.087895,-0.086968,-0.086059,-0.08452,-0.082703,-0.079031,-0.073246,-0.065606,-0.056149,-0.04608,-0.036011,-0.025942,-0.018005,-0.011293,-0.007621,-0.006397,-0.008233,-0.012201,-0.018617,-0.026554,-0.035399,-0.045468,-0.056149,-0.068054,-0.079346,-0.0891,-0.09826,-0.1059,-0.111389,-0.114745,-0.116878,-0.118102,-0.117786,-0.115969,-0.11291,-0.110777,-0.10985,-0.109257,-0.10985,-0.111389,-0.112613,-0.115654,-0.11901,-0.12207,-0.12359,-0.12359,-0.122367,-0.120531,-0.117786,-0.114745,-0.112001,-0.10985,-0.107106,-0.104361,-0.101005,-0.097964,-0.094292,-0.090639,-0.087283,-0.083927,-0.083315,-0.084223,-0.086356,-0.087895,-0.089415,-0.09216,-0.09674,-0.102525,-0.104973,-0.102525,-0.091548,-0.06683,-0.024403,0.040294,0.129394,0.241395,0.368361,0.49896,0.613094,0.692143,0.722666,0.700989,0.629282,0.513925,0.366525,0.206905,0.054332,-0.073542,-0.167223,-0.221554,-0.240783,-0.23192,-0.205996,-0.172415,-0.140687,-0.115654,-0.098872,-0.090324,-0.0891,-0.093995,-0.10132,-0.108329,-0.115654,-0.121143,-0.124814,-0.125723,-0.124814,-0.122682,-0.118714,-0.113818,-0.108941,-0.103137,-0.097964,-0.093384,-0.090639,-0.088488,-0.08758,-0.086671,-0.085744,-0.084835,-0.083927,-0.082999,-0.080867,-0.078734,-0.076602,-0.075063,-0.074766,-0.074451,-0.074766,-0.074766,-0.075378,-0.074766,-0.073542,-0.071095,-0.068665,-0.06377,-0.058893,-0.054925,-0.051884,-0.049121,-0.0476,-0.047304,-0.047304,-0.047304,-0.046692,-0.044559,-0.042408,-0.039052,-0.035084,-0.030819,-0.027462,-0.02533,-0.024106,-0.023198,-0.022586,-0.020138,-0.017078,-0.014334,-0.010681,-0.007621,-0.006101,-0.007009,-0.010681,-0.01769,-0.028371,-0.040888,-0.054016,-0.06683,-0.079346,-0.0891,-0.097352,-0.104361,-0.109553,-0.113521,-0.116581,-0.118714,-0.119937,-0.121143,-0.122367,-0.122978,-0.122682,-0.121755,-0.120846,-0.119325,-0.118102,-0.116878,-0.115969,-0.115357,-0.114133,-0.113521,-0.113521,-0.113521,-0.114133,-0.115654,-0.116878,-0.118102,-0.117174,-0.115042,-0.11291,-0.110777,-0.107717,-0.105585,-0.103749,-0.102525,-0.101932,-0.101932,-0.103137,-0.104973,-0.106809,-0.108329,-0.109553,-0.110165,-0.110777,-0.111389,-0.11291,-0.113818,-0.11291,-0.112298,-0.111389,-0.108645,-0.106494,-0.104361,-0.102525
11_0,-0.428774,-0.410752,-0.433948,-0.434878,-0.417787,-0.420839,-0.436099,-0.423571,-0.421449,-0.415955,-0.434559,-0.458685,-0.438541,-0.417467,-0.416566,-0.415345,-0.415345,-0.421449,-0.411363,-0.389388,-0.397323,-0.426943,-0.463568,-0.491037,-0.488595,-0.443104,-0.332038,-0.166934,0.020144,0.231639,0.458685,0.640879,0.724187,0.69916,0.545044,0.219111,-0.284425,-0.598761,-0.628962,-0.571292,-0.492258,-0.436099,-0.421129,-0.415636,-0.412903,-0.420839,-0.410752,-0.40709,-0.419007,-0.441884,-0.45136,-0.435169,-0.447697,-0.45197,-0.43732,-0.433047,-0.45165,-0.461126,-0.43671,-0.430605,-0.440983,-0.432117,-0.410142,-0.417787,-0.435779,-0.424792,-0.414124,-0.413804,-0.405578,-0.408311,-0.42235,-0.424182,-0.40802,-0.389998,-0.388167,-0.39305,-0.385115,-0.384504,-0.389998,-0.391539,-0.388167,-0.359477,-0.362239,-0.370174,-0.357966,-0.346978,-0.354013,-0.354303,-0.356135,-0.33538,-0.304569,-0.316167,-0.346077,-0.354303,-0.361628,-0.354013,-0.338432,-0.351571,-0.358867,-0.351251,-0.346077,-0.351571,-0.369564,-0.371686,-0.354013,-0.343636,-0.353693,-0.344246,-0.325614,-0.297244,-0.284425,-0.299976,-0.322881,-0.33477,-0.34942,-0.351251,-0.367413,-0.383284,-0.391539,-0.412293,-0.420519,-0.419007,-0.421129,-0.419007,-0.419007,-0.431507,-0.439762,-0.425112,-0.40741,-0.409241,-0.418688,-0.424792,-0.410752,-0.399474,-0.409241,-0.425112,-0.408921,-0.402526,-0.410462,-0.403427,-0.438221,-0.435169,-0.429385,-0.435169,-0.401596,-0.39305,-0.391539,-0.386045,-0.379011,-0.374127,-0.377499,-0.373226,-0.354303,-0.358256,-0.380551,-0.371395,-0.36407,-0.372906,-0.401916,-0.398253,-0.375348,-0.361018,-0.351571,-0.387266,-0.410462,-0.391219,-0.379621,-0.37872,-0.362529,-0.342095,-0.345467,-0.339653,-0.357966,-0.370785,-0.366192,-0.34942,-0.330817,-0.332328,-0.354303,-0.357646,-0.349129,-0.316777,-0.32012,-0.365901,-0.373837,-0.343316,-0.314946,-0.30608,-0.312795,-0.315237,-0.299075,-0.32105,-0.338432,-0.331107,-0.316167,-0.304569,-0.342705,-0.353402,-0.339363,-0.340264,-0.33477,-0.339973,-0.347298,-0.327445,-0.30608,-0.300296,-0.30486,-0.32073,-0.32012,-0.313725,-0.288088,-0.279832,-0.296633,-0.301197,-0.289599,-0.278612,-0.2478,-0.228877,-0.235272,-0.240766,-0.239254,-0.233761,-0.242306,-0.26152,-0.259398,-0.265182,-0.272217,-0.265182,-0.290529,-0.318289,-0.332328,-0.350961,-0.356135,-0.326224,-0.313405,-0.330497,-0.352181,-0.331718,-0.31951,-0.323782,-0.346368,-0.354623,-0.352792,-0.33477,-0.32012,-0.334479,-0.337531,-0.324713,-0.342095,-0.352472,-0.362529,-0.352181,-0.337822,-0.309132,-0.300296,-0.312504,-0.341804,-0.345757,-0.334479,-0.313725,-0.280443,-0.287768,-0.303958,-0.312185,-0.312185,-0.296633,-0.283495,-0.257247,-0.270066,-0.307011,-0.30579,-0.296924,-0.321951,-0.373226,-0.398544,-0.403747,-0.314626,-0.176992,-0.040288,0.107114,0.298174,0.541992,0.750435,0.850543,0.817581,0.663756,0.360407,-0.143739,-0.441593,-0.468132,-0.435489,-0.373837,-0.30579,-0.280763,-0.288989,-0.286547,-0.321341,-0.335991,-0.324102,-0.296924,-0.30547,-0.31951,-0.307912,-0.309452,-0.304569,-0.310353,-0.309132,-0.314016,-0.317678,-0.303348,-0.288989,-0.285937,-0.293581,-0.301807,-0.287157,-0.27678,-0.303028,-0.294482,-0.292971,-0.283815,-0.295413,-0.287768,-0.270386,-0.266113,-0.273118,-0.257567,-0.26213,-0.252683,-0.237103,-0.237103,-0.252364,-0.27556,-0.258177,-0.229778,-0.228267,-0.26152,-0.261229,-0.241086,-0.237103,-0.228557,-0.21789,-0.222163,-0.240475,-0.243207,-0.214227,-0.212716,-0.223994,-0.211175,-0.206001,-0.202339,-0.236202,-0.256637,-0.249922,-0.255736,-0.248701,-0.243527,-0.270066,-0.286256,-0.254805,-0.238324,-0.221232,-0.216989,-0.206001,-0.212396,-0.23283,-0.243818,-0.259398,-0.255736,-0.26184,-0.278001,-0.294482,-0.303958,-0.32044,-0.333549,-0.325003,-0.32105,-0.330817,-0.321661,-0.327765,-0.338142,-0.32073,-0.315237,-0.311894,-0.317388,-0.311894,-0.322562,-0.326544,-0.307912,-0.309743,-0.299976,-0.300587,-0.297535,-0.279832,-0.253294,-0.30486,-0.332038,-0.311894,-0.295703,-0.300906,-0.292651,-0.286547,-0.284105,-0.303028,-0.29021,-0.274949,-0.296633,-0.308522,-0.309452,-0.307912,-0.308842,-0.293262,-0.281664,-0.274658,-0.277391,-0.274339,-0.279222,-0.270066,-0.2771,-0.286547,-0.285036,-0.270676,-0.252974,-0.258177,-0.29021,-0.297854,-0.256637,-0.255416,-0.287768,-0.292971,-0.27617,-0.259398,-0.24748,-0.213006,-0.21789,-0.262741,-0.272507,-0.267624,-0.270386,-0.261229,-0.239865,-0.2478,-0.267944,-0.271606,-0.242597,-0.208733,-0.192572,-0.183706,-0.178823,-0.180974,-0.167836,-0.155627,-0.153505,-0.156848,-0.148913,-0.162051,-0.163882,-0.181875,-0.205681,-0.240475,-0.280763,-0.270066,-0.251143,-0.256026,-0.280443,-0.287157,-0.296314,-0.292041,-0.240475,-0.233441,-0.253904,-0.283204,-0.277711,-0.279832,-0.29175,-0.284716,-0.288989,-0.281053,-0.26213,-0.266403,-0.270386,-0.27617,-0.282885,-0.272507,-0.265502,-0.284716,-0.299686,-0.267014,-0.259078,-0.292651,-0.298465,-0.273118,-0.274339,-0.271897,-0.252974,-0.242917,-0.253585,-0.267014,-0.269455,-0.245969,-0.239865,-0.267624,-0.288088,-0.275879,-0.307011,-0.347589,-0.314016,-0.200507,-0.018312,0.142518,0.301517,0.50996,0.726018,0.894464,0.911875,0.77148,0.434268,-0.053397,-0.373226,-0.437611,-0.412293,-0.351862,-0.30547,-0.288989,-0.267944,-0.252974,-0.256637,-0.248701,-0.26213,-0.284105,-0.274658,-0.263351,-0.274949,-0.282274,-0.268554,-0.281053,-0.284105,-0.279832,-0.255416,-0.230999,-0.27617,-0.281053,-0.258177,-0.21882,-0.17487,-0.223383,-0.267333,-0.238033,-0.208443,-0.207832,-0.221843,-0.249631,-0.252364,-0.245039,-0.240475,-0.236202,-0.228557,-0.220942,-0.208733,-0.209664,-0.235592,-0.248701,-0.219721,-0.185857,-0.210565,-0.205681,-0.167545,-0.155017,-0.177312,-0.200507,-0.183416,-0.181584,-0.174259,-0.142808,-0.129379,-0.111067,-0.128478,-0.153796,-0.126037,-0.162342,-0.190741,-0.191642,-0.167545,-0.184026,-0.220041,-0.190741,-0.174259,-0.14525,-0.179753,-0.202339,-0.194403,-0.188909,-0.177312,-0.152284,-0.172428,-0.213326,-0.197455,-0.186148,-0.212396,-0.248091,-0.2478,-0.251143,-0.277711,-0.283204,-0.282594,-0.262741,-0.229168,-0.200507,-0.224604,-0.259689,-0.246579,-0.239254,-0.258468,-0.268235,-0.258468,-0.2478,-0.235592,-0.225505,-0.249312,-0.241086,-0.194694,-0.193182,-0.221232,-0.217279,-0.251143,-0.250242,-0.228267,-0.249021,-0.224895,-0.185857,-0.241987,-0.295703,-0.280443,-0.245358,-0.210274,-0.208733,-0.231929,-0.24748,-0.24626,-0.216378,-0.206001,-0.197455,-0.191031,-0.192572,-0.188299,-0.209664,-0.222453,-0.221843,-0.235272,-0.224895,-0.242597,-0.229168,-0.179143,-0.180044,-0.214838,-0.238033,-0.242597,-0.230999,-0.200507,-0.195915,-0.182195,-0.180654,-0.220942,-0.199577,-0.183706,-0.141588,-0.096126,-0.087261,-0.084528,-0.121153,-0.142198,-0.108945,-0.075081,-0.129699,-0.14618,-0.137925,-0.149843,-0.148622,-0.162662,-0.193793,-0.176992,-0.176992,-0.206292,-0.212716,-0.211495,-0.191962,-0.186758,-0.194403,-0.206292,-0.190421,-0.221232,-0.24748,-0.249631,-0.259398,-0.241696,-0.204461,-0.214547,-0.207513,-0.19013,-0.20478,-0.250242,-0.268235,-0.227656,-0.224285,-0.261229,-0.248411,-0.220041,-0.205681,-0.202949,-0.203559,-0.191962,-0.195915,-0.224895,-0.228267,-0.266403,-0.280443,-0.241376,-0.217279,-0.195915,-0.220651,-0.230999,-0.252364,-0.296633,-0.303639,-0.278001,-0.212105,-0.076913,0.112927,0.244457,0.387876,0.56978,0.791013,0.916439,0.859089,0.647885,0.213006,-0.236202,-0.391539,-0.379621,-0.324393,-0.252974,-0.220651,-0.249021,-0.254805,-0.240155,-0.233441,-0.226436,-0.176381,-0.214838,-0.230708,-0.212105,-0.242917,-0.264572,-0.236493,-0.212105,-0.253585,-0.269775,-0.24687,-0.233761,-0.214838,-0.215448,-0.244138,-0.259398,-0.227947,-0.163563,-0.185247,-0.229488,-0.213006,-0.21943,-0.206612,-0.18952,-0.205681,-0.199897,-0.144349,-0.162952,-0.219111,-0.212396,-0.180044,-0.157458,-0.153796,-0.153186,-0.180364,-0.178213,-0.151354,-0.162342,-0.17487,-0.176381,-0.143739,-0.155337,-0.177312,-0.181875,-0.137925,-0.114439,-0.129089,-0.137024,-0.158999,-0.147401,-0.134582,-0.124205,-0.14525,-0.121153,-0.073541,-0.129379,-0.19013,-0.194694,-0.173039,-0.103131,-0.085139,-0.109236,-0.103131,-0.10069,-0.165714,-0.190741,-0.163882,-0.199897,-0.206612,-0.253585,-0.278931,-0.251753,-0.248091,-0.230708,-0.201728,-0.215448,-0.215157,-0.200188,-0.214547,-0.207513,-0.211175,-0.187078,-0.249312,-0.289599,-0.256346,-0.218209,-0.220331,-0.245649,-0.239865,-0.21943,-0.219111,-0.215448,-0.198676,-0.179143,-0.210565,-0.240155,-0.206902,-0.209344,-0.209344,-0.160511,-0.190741,-0.180974,-0.176381,-0.184927,-0.21943,-0.270996,-0.254515,-0.195014,-0.184026,-0.198066,-0.244748,-0.204461,-0.193182,-0.236202,-0.224285,-0.206612,-0.214838,-0.178532,-0.19013,-0.201118,-0.151354,-0.187369,-0.219721,-0.212396,-0.186148,-0.176091,-0.169667,-0.13153,-0.119932,-0.122984,-0.082697,-0.097957,-0.07325,-0.076593,-0.129699,-0.096417,-0.078133,-0.122374,-0.144029,-0.123275,-0.078744,-0.101911,-0.172719,-0.193793,-0.204461,-0.198967,-0.20478,-0.202629,-0.184637,-0.170597,-0.139756,-0.138855,-0.166004,-0.201408,-0.241376,-0.220041,-0.20417,-0.216989,-0.21943,-0.220651,-0.230708,-0.220651,-0.219721,-0.218209,-0.185247,-0.191351,-0.252974,-0.269775,-0.245969,-0.240475,-0.243818,-0.252683,-0.21789,-0.207222,-0.229488,-0.214547,-0.198676,-0.206902,-0.206292,-0.179433,-0.177602,-0.200188,-0.209053,-0.181875,-0.219111,-0.285646,-0.280152,-0.258468,-0.226116,-0.118392,0.022585,0.172428,0.350641,0.563066,0.737296,0.859089,0.834963,0.703433,0.421158,-0.026858,-0.282885,-0.336311,-0.342095,-0.315847,-0.253585,-0.215448,-0.211495,-0.210565,-0.227337,-0.212396,-0.200798,-0.20385,-0.230098,-0.20324,-0.20324,-0.207222,-0.241086,-0.233441,-0.211495,-0.213617,-0.200798,-0.243818,-0.252683,-0.192572,-0.180364,-0.159609,-0.155337,-0.198676,-0.182805,-0.144959,-0.171818,-0.188299,-0.186148,-0.196234,-0.210274,-0.185538,-0.143128,-0.155947,-0.195915,-0.212105,-0.167225,-0.165714,-0.197746,-0.165103,-0.152284,-0.166615,-0.138245,-0.135483,-0.157168,-0.106503,-0.1013,-0.140977,-0.149523,-0.177602
